,Unnamed: 0,price.open,price.high,price.low,price.close,volume,price.adjusted,ref.date,ticker,ret.adjusted.prices,ret.closing.prices
257695,258417,84.059998,84.980003,83.900002,84.654999,3079200.0,80.785698,2013-11-21,EOG,,
257696,258418,85.099998,85.20500200000001,83.675003,85.074997,2536600.0,81.186462,2013-11-22,EOG,0.0049608285862679,0.0049612900001332295
257697,258419,84.660004,84.684998,82.834999,84.595001,3777800.0,80.728409,2013-11-25,EOG,-0.00564198745352407,-0.00564203369880811
257698,258420,84.675003,85.739998,83.849998,84.599998,3180400.0,80.733177,2013-11-26,EOG,5.906223173557379e-05,5.90696842712735e-05
257699,258421,84.464996,84.845001,82.760002,83.214996,3360200.0,79.411507,2013-11-27,EOG,-0.0163708409493163,-0.0163711824201225
257700,258422,83.25,83.555,82.095001,82.5,2248400.0,78.729179,2013-11-29,EOG,-0.00859230640214392,-0.00859215327006679
257701,258423,83.0,83.275002,81.565002,82.5,3034400.0,78.729179,2013-12-02,EOG,0.0,0.0
257702,258424,82.224998,83.364998,80.910004,82.739998,4163800.0,78.958214,2013-12-03,EOG,0.00290915011320014,0.0029090666666666803
257703,258425,82.800003,84.555,82.75,83.565002,3751400.0,79.745499,2013-12-04,EOG,0.009970906890067079,0.00997104205876354
257704,258426,82.66999799999999,83.870003,82.08000200000001,82.690002,4473800.0,78.910507,2013-12-05,EOG,-0.0104707100773174,-0.0104708906726287
257705,258427,83.474998,83.550003,79.945,80.019997,7343200.0,76.362526,2013-12-06,EOG,-0.0322895023345876,-0.0322893328748499
257706,258428,80.459999,80.625,78.154999,79.07,8547400.0,75.45594799999999,2013-12-09,EOG,-0.0118720273868362,-0.0118719949464633
257707,258429,79.214996,80.970001,79.07,79.654999,4554400.0,76.014191,2013-12-10,EOG,0.0073982636862501795,0.0073984950044265795
257708,258430,79.425003,79.57,78.004997,78.129997,4240000.0,74.558914,2013-12-11,EOG,-0.01914480679009,-0.0191450884331817
257709,258431,78.214996,79.660004,78.120003,79.18,3813000.0,75.560928,2013-12-12,EOG,0.0134392247183215,0.0134391788086208
257710,258432,78.834999,79.675003,78.245003,79.510002,4488600.0,75.875854,2013-12-13,EOG,0.0041678418772199705,0.00416774437989376
257711,258433,79.66999799999999,80.985001,79.66999799999999,79.870003,4120200.0,76.219383,2013-12-16,EOG,0.0045275141153600105,0.00452774482385254
257712,258434,80.260002,80.260002,78.754997,79.824997,3471800.0,76.176445,2013-12-17,EOG,-0.0005633475148965059,-0.0005634906511772231
257713,258435,79.82,81.190002,79.165001,81.0,5965400.0,77.297737,2013-12-18,EOG,0.0147196682649078,0.0147197374777228
257714,258436,80.834999,82.95500200000001,80.589996,82.665001,5073600.0,78.886627,2013-12-19,EOG,0.0205554530011662,0.0205555679012346
257715,258437,83.059998,84.660004,82.724998,84.260002,6265800.0,80.408745,2013-12-20,EOG,0.019295006744299,0.0192947557092511
257716,258438,84.629997,84.91999799999999,83.415001,83.809998,3028000.0,79.979294,2013-12-23,EOG,-0.00534084943124036,-0.00534065973556475
257717,258439,83.910004,84.135002,83.114998,84.129997,978200.0,80.28466800000001,2013-12-24,EOG,0.0038181632360996297,0.0038181482834542795
257718,258440,84.230003,84.769997,83.834999,84.010002,1772200.0,80.17016600000001,2013-12-26,EOG,-0.00142620008094196,-0.0014263045795663801
257719,258441,84.07,84.739998,83.839996,84.58000200000001,1685200.0,80.714111,2013-12-27,EOG,0.00678488055020376,0.00678490639721674
257720,258442,84.474998,85.25,83.099998,83.675003,2811400.0,79.850464,2013-12-30,EOG,-0.0107000744888338,-0.0106999169851048
257721,258443,83.66999799999999,84.425003,83.235001,83.91999799999999,2109800.0,80.08426700000001,2013-12-31,EOG,0.0029280105372961897,0.00292793535961988
257722,258444,83.285004,83.980003,82.029999,82.510002,2943400.0,78.738724,2014-01-02,EOG,-0.0168015897554509,-0.0168016686559026
257723,258445,82.875,83.324997,81.904999,82.279999,2693800.0,78.51924100000001,2014-01-03,EOG,-0.0027874848467193103,-0.00278757719579259
257724,258446,82.385002,82.665001,81.16999799999999,82.010002,3649200.0,78.261574,2014-01-06,EOG,-0.0032815778237081897,-0.00328144145942444
257725,258447,82.535004,83.45500200000001,81.855003,83.425003,3286800.0,79.61191600000001,2014-01-07,EOG,0.0172542146928965,0.0172540051882941
257726,258448,83.010002,83.915001,82.525002,83.389999,2857800.0,79.578484,2014-01-08,EOG,-0.00041993713604371297,-0.000419586439811104
257727,258449,83.70500200000001,84.445,82.739998,83.5,3539400.0,79.683479,2014-01-09,EOG,0.00131938929623243,0.00131911501761728
257728,258450,83.730003,84.050003,82.995003,83.404999,2949800.0,79.592812,2014-01-10,EOG,-0.0011378393757131,-0.00113773652694604
257729,258451,83.70500200000001,84.135002,81.485001,81.730003,2672600.0,77.994392,2014-01-13,EOG,-0.0200824667433536,-0.0200826811352159
257730,258452,82.029999,84.364998,81.815002,84.300003,3221800.0,80.446915,2014-01-14,EOG,0.0314448633691509,0.031445000681083995
257731,258453,84.730003,86.639999,84.699997,85.18,4088800.0,81.37741899999999,2014-01-15,EOG,0.0115666834458474,0.0104388727008706
257732,258454,85.050003,85.584999,84.349998,85.050003,3342400.0,81.253235,2014-01-16,EOG,-0.00152602529701762,-0.00152614463489087
257733,258455,85.480003,85.940002,84.459999,84.480003,3325800.0,80.708694,2014-01-17,EOG,-0.0067017762431245105,-0.00670193979887346
257734,258456,84.58000200000001,85.275002,84.07,84.614998,3195000.0,80.837654,2014-01-21,EOG,0.00159784520859674,0.0015979521212850002
257735,258457,85.099998,86.150002,84.625,85.860001,3588600.0,82.027077,2014-01-22,EOG,0.0147137248688589,0.014713739046593
257736,258458,84.889999,85.870003,84.114998,84.584999,4482800.0,80.808998,2014-01-23,EOG,-0.0148497184655257,-0.0148497785365738
257737,258459,84.025002,84.519997,82.559998,82.764999,5645400.0,79.070229,2014-01-24,EOG,-0.0215170221514194,-0.0215168176569936
257738,258460,82.584999,82.745003,80.629997,81.050003,3806000.0,77.43180100000001,2014-01-27,EOG,-0.0207211743373097,-0.0207212713190512
257739,258461,81.690002,83.75,81.144997,83.610001,3292600.0,79.877525,2014-01-28,EOG,0.0315855238857226,0.0315854152405151
257740,258462,82.959999,83.08000200000001,81.769997,82.324997,3280400.0,78.64986400000001,2014-01-29,EOG,-0.0153692919253571,-0.0153690226603395
257741,258463,82.550003,83.75,82.324997,83.065002,2263000.0,79.356827,2014-01-30,EOG,0.00898873773004882,0.008988825107397291
257742,258464,82.334999,83.800003,81.589996,82.620003,2639600.0,78.931709,2014-01-31,EOG,-0.005357043824345429,-0.0053572381783607605
257743,258465,82.305,83.43,80.75,80.870003,4528800.0,77.259834,2014-02-03,EOG,-0.0211812846976366,-0.0211813112618744
257744,258466,81.334999,84.495003,81.25,84.290001,6576800.0,80.527153,2014-02-04,EOG,0.0422900080266804,0.0422900689146755
257745,258467,84.050003,84.849998,83.385002,83.745003,4293000.0,80.006477,2014-02-05,EOG,-0.00646584388746485,-0.00646574912248499
257746,258468,83.845001,86.894997,83.845001,86.625,5142200.0,82.757912,2014-02-06,EOG,0.0343901531872226,0.0343900757875668
257747,258469,87.385002,88.440002,86.57,88.25,4170600.0,84.310364,2014-02-07,EOG,0.0187589556391901,0.0187590187590188
257748,258470,88.379997,88.379997,86.535004,87.099998,3538200.0,83.21171600000001,2014-02-10,EOG,-0.0130309958097206,-0.0130311841359774
257749,258471,87.150002,88.105003,86.779999,87.364998,3298800.0,83.46488199999999,2014-02-11,EOG,0.00304243214981903,0.00304247997801332
257750,258472,87.875,88.449997,87.245003,87.555,2585000.0,83.646416,2014-02-12,EOG,0.00217497461986471,0.00217480689463301
257751,258473,86.790001,88.375,86.300003,87.735001,3432600.0,83.818375,2014-02-13,EOG,0.00205578443432652,0.00205586202958119
257752,258474,87.855003,88.625,87.445,88.480003,2337600.0,84.530128,2014-02-14,EOG,0.00849161058061565,0.00849150272420918
257753,258475,89.059998,90.129997,89.004997,89.959999,3654600.0,85.944038,2014-02-18,EOG,0.0167266989114225,0.0167268981670357
257754,258476,89.525002,90.805,89.199997,89.43,3835000.0,85.437698,2014-02-19,EOG,-0.00589150814626616,-0.005891496286032471
257755,258477,89.519997,91.029999,89.074997,90.014999,4512000.0,85.99658199999999,2014-02-20,EOG,0.00654142156311388,0.0065414178687242
257756,258478,90.235001,90.485001,88.970001,89.0,5410800.0,85.026901,2014-02-21,EOG,-0.0112758086129517,-0.0112758874773747
257757,258479,89.214996,90.809998,88.514999,90.199997,7053200.0,86.173309,2014-02-24,EOG,0.0134828858457396,0.0134831123595505
257758,258480,91.425003,92.565002,89.625,92.0,7461200.0,87.89299,2014-02-25,EOG,0.0199560747980561,0.0199556880251337
257759,258481,91.805,94.20500200000001,91.440002,93.220001,7214400.0,89.05851,2014-02-26,EOG,0.0132606707315339,0.0132608804347825
257760,258482,93.20500200000001,93.824997,92.245003,93.735001,3779600.0,89.550507,2014-02-27,EOG,0.0055244243363155,0.005524565484610999
257761,258483,93.860001,95.540001,93.555,94.709999,5076400.0,90.48201800000001,2014-02-28,EOG,0.0104020739938413,0.0104016428185667
257762,258484,94.525002,96.0,94.309998,94.644997,5608400.0,90.419876,2014-03-03,EOG,-0.0006867883958997509,-0.000686326688695171
257763,258485,95.235001,96.459999,95.165001,95.779999,4265400.0,91.50421899999999,2014-03-04,EOG,0.0119923079744104,0.011992202820821002
257764,258486,96.019997,96.610001,95.025002,95.245003,3900800.0,90.993103,2014-03-05,EOG,-0.0055857096600103705,-0.00558567556468659
257765,258487,95.360001,96.105003,94.665001,95.529999,3450600.0,91.265396,2014-03-06,EOG,0.00299245757120725,0.0029922409682743303
257766,258488,95.760002,95.974998,94.099998,94.959999,3917200.0,90.720833,2014-03-07,EOG,-0.00596680695934304,-0.00596671209009436
257767,258489,94.959999,94.959999,93.559998,94.525002,2759200.0,90.30526,2014-03-10,EOG,-0.00458078906749004,-0.0045808446143728
257768,258490,94.91999799999999,95.084999,92.660004,92.800003,4103200.0,88.657257,2014-03-11,EOG,-0.0182492470538261,-0.0182491294737026
257769,258491,91.800003,93.214996,90.83000200000001,92.565002,4087600.0,88.432762,2014-03-12,EOG,-0.00253216722010707,-0.0025323382802044897
257770,258492,93.125,93.324997,90.885002,91.45500200000001,3763800.0,87.37230699999999,2014-03-13,EOG,-0.011991653048221999,-0.0119915732298046
257771,258493,91.485001,93.105003,91.449997,92.985001,3178400.0,88.83399200000001,2014-03-14,EOG,0.0167293854333044,0.0167295278174069
257772,258494,93.300003,94.0,93.0,93.614998,2722400.0,89.435875,2014-03-17,EOG,0.00677536814961543,0.0067752540003736
257773,258495,93.699997,95.260002,93.589996,94.58000200000001,3166000.0,90.357811,2014-03-18,EOG,0.0103083466226501,0.0103082200567903
257774,258496,94.675003,94.720001,93.014999,93.764999,3165000.0,89.579163,2014-03-19,EOG,-0.00861738450038374,-0.00861707530942946
257775,258497,93.809998,95.279999,93.035004,95.165001,4022400.0,90.91667199999999,2014-03-20,EOG,0.0149310281008097,0.014930965871391
257776,258498,95.95500200000001,96.58000200000001,94.690002,95.82,5331800.0,91.54244200000001,2014-03-21,EOG,0.0068828960215348,0.00688277195520648
257777,258499,96.125,96.485001,94.230003,94.800003,3461600.0,90.56796999999999,2014-03-24,EOG,-0.0106450295481521,-0.0106449279899811
257778,258500,95.589996,96.485001,95.449997,95.785004,3816400.0,91.509003,2014-03-25,EOG,0.0103903510258649,0.0103903055783658
257779,258501,96.275002,97.660004,95.949997,96.059998,4117200.0,91.77172900000001,2014-03-26,EOG,0.00287103991287041,0.002870950446481
257780,258502,96.144997,97.699997,96.010002,96.730003,3528200.0,92.411835,2014-03-27,EOG,0.00697498027960219,0.00697485960805455
257781,258503,97.235001,99.410004,97.055,98.58000200000001,4051000.0,94.17923,2014-03-28,EOG,0.0191252018748465,0.0191253896683947
257782,258504,99.235001,99.75,97.525002,98.084999,8285600.0,93.706329,2014-03-31,EOG,-0.00502128760237275,-0.00502133282569828
257783,258505,99.379997,100.360001,98.260002,98.980003,3422900.0,94.561371,2014-04-01,EOG,0.009124698503555791,0.00912477962098968
257784,258506,98.269997,99.449997,98.019997,99.110001,2858000.0,94.685577,2014-04-02,EOG,0.00131349618439858,0.00131337639987739
257785,258507,99.33000200000001,101.5,99.260002,100.650002,5219000.0,96.15682199999999,2014-04-03,EOG,0.0155382165543545,0.0155383007210341
257786,258508,102.66999799999999,103.300003,98.949997,99.769997,4028600.0,95.316101,2014-04-04,EOG,-0.00874322780759129,-0.008743218902270809
257787,258509,99.720001,99.980003,97.449997,97.93,3146300.0,93.558243,2014-04-07,EOG,-0.0184424035557225,-0.0184423880457769
257788,258510,97.779999,99.58000200000001,97.540001,98.709999,3293600.0,94.30342900000001,2014-04-08,EOG,0.00796494222320954,0.00796486265699969
257789,258511,98.940002,99.16999799999999,97.989998,98.949997,3826700.0,94.53270699999999,2014-04-09,EOG,0.00243127956672717,0.00243134436664305
257790,258512,98.629997,99.989998,97.559998,98.110001,4706000.0,93.730209,2014-04-10,EOG,-0.0084891041996713,-0.008489095760154441
257791,258513,97.66999799999999,99.440002,97.57,98.629997,4581500.0,94.22699,2014-04-11,EOG,0.0053001162090655606,0.00530013245030969
257792,258514,99.519997,100.099998,98.720001,99.959999,3427800.0,95.618813,2014-04-14,EOG,0.0147709589365002,0.013484761638996999
257793,258515,99.629997,101.68,99.519997,101.110001,4695400.0,96.718849,2014-04-15,EOG,0.0115043887859181,0.0115046219638317
257794,258516,101.480003,102.199997,100.43,101.010002,3650900.0,96.623215,2014-04-16,EOG,-0.0009887834790094359,-0.0009890119573828788
257795,258517,100.839996,102.839996,100.839996,102.449997,3253200.0,98.000648,2014-04-17,EOG,0.0142557148403724,0.0142559644736964
257796,258518,102.980003,103.58000200000001,101.839996,103.529999,2404700.0,99.03376800000001,2014-04-21,EOG,0.0105419711102319,0.0105417475024427
257797,258519,103.269997,103.269997,102.110001,102.339996,3332800.0,97.89544699999999,2014-04-22,EOG,-0.0114942713277353,-0.011494281961695
257798,258520,102.529999,105.18,102.529999,105.08000200000001,3445700.0,100.516449,2014-04-23,EOG,0.0267734821211858,0.0267735597722711
257799,258521,105.5,105.5,103.41999799999999,103.480003,3716000.0,98.98593100000001,2014-04-24,EOG,-0.0152265426726326,-0.0152264842933673
257800,258522,103.25,103.300003,98.519997,99.040001,7168000.0,94.73877,2014-04-25,EOG,-0.0429067136823716,-0.0429068599853055
257801,258523,99.940002,100.0,96.529999,98.059998,5112100.0,93.801331,2014-04-28,EOG,-0.00989498808143696,-0.00989502211333793
257802,258524,98.879997,101.230003,98.83000200000001,99.620003,4089100.0,95.293594,2014-04-29,EOG,0.0159087614652291,0.0159086786846558
257803,258525,99.07,99.199997,97.010002,98.0,6297700.0,93.743942,2014-04-30,EOG,-0.0162618696068908,-0.0162618244450363
257804,258526,98.33000200000001,98.769997,96.809998,97.120003,4240100.0,92.902153,2014-05-01,EOG,-0.008979662920511779,-0.00897956122448984
257805,258527,97.300003,98.25,96.82,97.059998,3710900.0,92.844765,2014-05-02,EOG,-0.0006177251887801161,-0.000617843885363234
257806,258528,96.040001,99.709999,96.010002,99.25,4757400.0,94.93965899999999,2014-05-05,EOG,0.0225634046249135,0.0225633839390766
257807,258529,102.800003,106.5,101.839996,103.629997,8515800.0,99.12941,2014-05-06,EOG,0.0441306725148443,0.044130952141058
257808,258530,104.610001,105.449997,102.639999,104.790001,5705400.0,100.239037,2014-05-07,EOG,0.0111937214193043,0.011193708709651001
257809,258531,104.029999,104.559998,101.620003,101.730003,3264300.0,97.31193499999999,2014-05-08,EOG,-0.0292012182838507,-0.0292012402977265
257810,258532,102.0,102.300003,100.639999,102.279999,3709500.0,97.83805799999999,2014-05-09,EOG,0.00540656189808586,0.005406428622635629
257811,258533,102.57,103.730003,101.980003,103.639999,3351800.0,99.138977,2014-05-12,EOG,0.013296655990453002,0.0132968323552682
257812,258534,104.58000200000001,105.5,104.07,105.16999799999999,3426300.0,100.602524,2014-05-13,EOG,0.0147625792023254,0.0147626304010289
257813,258535,105.389999,105.489998,103.860001,103.900002,2415000.0,99.387718,2014-05-14,EOG,-0.0120753033989485,-0.0120756491789608
257814,258536,103.970001,103.980003,101.550003,102.739998,2608100.0,98.27808399999999,2014-05-15,EOG,-0.0111646994450562,-0.0111646196118457
257815,258537,102.57,102.879997,101.339996,102.5,2846300.0,98.048508,2014-05-16,EOG,-0.0023359836766863,-0.00233597434954202
257816,258538,102.5,103.360001,101.959999,102.300003,1832600.0,97.85717,2014-05-19,EOG,-0.0019514626372488801,-0.00195119024390245
257817,258539,102.220001,102.949997,101.470001,101.889999,1937500.0,97.46500400000001,2014-05-20,EOG,-0.004007534654844379,-0.00400785912000412
257818,258540,102.699997,104.360001,102.129997,104.160004,1777500.0,99.636421,2014-05-21,EOG,0.0222789402440287,0.0222789775471486
257819,258541,104.290001,105.16999799999999,103.529999,103.68,2457100.0,99.177246,2014-05-22,EOG,-0.00460850555842429,-0.004608333156362001
257820,258542,103.889999,105.150002,103.440002,103.970001,2535000.0,99.45465899999999,2014-05-23,EOG,0.00279714361094485,0.0027970775462962103
257821,258543,104.440002,104.970001,103.75,104.730003,2072500.0,100.181641,2014-05-27,EOG,0.00730968269671495,0.007309820070118041
257822,258544,104.860001,105.629997,104.400002,105.190002,2724800.0,100.62168100000001,2014-05-28,EOG,0.0043924215615514,0.0043922370555074
257823,258545,105.41999799999999,106.709999,105.0,106.66999799999999,2565500.0,102.037407,2014-05-29,EOG,0.0140697907839564,0.0140697402021155
257824,258546,106.269997,106.360001,105.25,105.800003,2293300.0,101.2052,2014-05-30,EOG,-0.008155901100074029,-0.008155948404536371
257825,258547,105.949997,106.0,104.949997,105.379997,1712400.0,100.80342900000001,2014-06-02,EOG,-0.003969865184793029,-0.00396981085151771
257826,258548,105.449997,106.660004,105.269997,106.660004,1974800.0,102.027817,2014-06-03,EOG,0.0121462931583409,0.0121465841377846
257827,258549,106.480003,106.730003,105.559998,106.370003,1695600.0,101.750443,2014-06-04,EOG,-0.00271861153316644,-0.00271892920611561
257828,258550,106.349998,107.910004,105.82,107.900002,2212100.0,103.213989,2014-06-05,EOG,0.0143836818479501,0.0143837450112698
257829,258551,108.139999,109.559998,108.040001,109.32,2151400.0,104.572319,2014-06-06,EOG,0.0131603284899684,0.0131603148626447
257830,258552,110.089996,110.75,109.0,109.510002,2366300.0,104.754044,2014-06-09,EOG,0.00173779257969797,0.00173803512623505
257831,258553,109.389999,109.75,108.410004,108.690002,2174200.0,103.969673,2014-06-10,EOG,-0.007487739566407471,-0.00748790051158976
257832,258554,108.25,110.910004,108.139999,110.699997,2683700.0,105.89236499999998,2014-06-11,EOG,0.0184928156886672,0.0184929152913254
257833,258555,111.459999,113.019997,111.220001,111.629997,3799500.0,106.781998,2014-06-12,EOG,0.0084012950319885,0.008401084238511821
257834,258556,111.769997,114.059998,110.529999,114.019997,3126400.0,109.068192,2014-06-13,EOG,0.0214099196757864,0.0214100158042645
257835,258557,115.209999,115.209999,113.019997,114.029999,4075200.0,109.077744,2014-06-16,EOG,8.75782372922185e-05,8.77214546848304e-05
257836,258558,113.949997,113.949997,111.260002,112.389999,5247000.0,107.508987,2014-06-17,EOG,-0.01438200812074,-0.0143821802541628
257837,258559,112.58000200000001,113.839996,111.739998,113.540001,2912400.0,108.609024,2014-06-18,EOG,0.0102320469264583,0.0102322449526848
257838,258560,113.139999,115.849998,112.519997,115.800003,3865900.0,110.770889,2014-06-19,EOG,0.0199050218884205,0.0199048967773041
257839,258561,117.050003,118.389999,116.150002,117.980003,5556100.0,112.856209,2014-06-20,EOG,0.0188255237348507,0.0188255608248991
257840,258562,118.519997,118.889999,116.949997,117.410004,3328800.0,112.310966,2014-06-23,EOG,-0.00483130706614476,-0.004831318744753729
257841,258563,117.18,117.449997,112.239998,113.019997,4574300.0,108.111626,2014-06-24,EOG,-0.0373902936601934,-0.0373903998844937
257842,258564,113.32,116.25,113.32,116.019997,3456700.0,110.98133100000001,2014-06-25,EOG,0.0265439074979781,0.0265439752223671
257843,258565,115.68,115.82,114.07,115.41999799999999,2355100.0,110.40738700000001,2014-06-26,EOG,-0.00517153646319124,-0.00517151366587254
257844,258566,115.230003,115.93,114.709999,115.839996,2801600.0,110.809151,2014-06-27,EOG,0.0036389231818339,0.0036388668105851204
257845,258567,116.08000200000001,117.190002,115.849998,116.860001,2342000.0,111.784866,2014-06-30,EOG,0.00880536482045602,0.00880529208581815
257846,258568,117.440002,117.940002,116.019997,116.550003,2793600.0,111.48831200000001,2014-07-01,EOG,-0.0026528993647494396,-0.00265272973940833
257847,258569,116.860001,117.589996,115.540001,116.230003,2649800.0,111.18222,2014-07-02,EOG,-0.0027455075290762103,-0.0027456026749309603
257848,258570,116.269997,117.019997,115.110001,116.75,1677900.0,111.679626,2014-07-03,EOG,0.00447379086332322,0.0044738620543614
257849,258571,116.400002,116.5,115.41999799999999,115.730003,1574500.0,110.703949,2014-07-07,EOG,-0.00873639207925003,-0.00873659100642399
257850,258572,115.370003,116.550003,115.129997,115.980003,2511100.0,110.94308500000001,2014-07-08,EOG,0.00216013974352447,0.00216020041060561
257851,258573,116.099998,116.629997,115.190002,116.559998,1938800.0,111.49787099999999,2014-07-09,EOG,0.00500063613698876,0.00500081897738869
257852,258574,114.879997,115.879997,113.760002,114.959999,2212700.0,109.96736899999999,2014-07-10,EOG,-0.0137267374369866,-0.0137268276205701
257853,258575,115.739998,115.739998,113.389999,113.650002,2482100.0,108.714272,2014-07-11,EOG,-0.0113951712348416,-0.0113952419223664
257854,258576,114.650002,116.050003,114.309998,115.690002,2956100.0,110.665672,2014-07-14,EOG,0.0179498051552975,0.0179498457025984
257855,258577,114.910004,115.620003,112.639999,113.440002,3367700.0,108.630753,2014-07-15,EOG,-0.0183879875595027,-0.019448525897683
257856,258578,114.620003,117.279999,114.16999799999999,117.099998,3181000.0,112.135597,2014-07-16,EOG,0.0322638286416004,0.0322637159332912
257857,258579,117.480003,118.809998,115.349998,115.550003,2286700.0,110.651306,2014-07-17,EOG,-0.0132365728609801,-0.0132365074848251
257858,258580,115.360001,116.389999,114.339996,116.040001,2605200.0,111.120522,2014-07-18,EOG,0.0042404921998842,0.00424057107120968
257859,258581,115.860001,116.43,115.120003,116.150002,1595000.0,111.225853,2014-07-21,EOG,0.0009478987148747731,0.0009479575926580891
257860,258582,116.75,117.620003,115.800003,116.550003,2600600.0,111.60891000000001,2014-07-22,EOG,0.00344395650532792,0.00344383119339087
257861,258583,116.699997,116.699997,115.300003,115.949997,3621600.0,111.034332,2014-07-23,EOG,-0.00514813736645214,-0.00514805649554562
257862,258584,116.480003,116.93,115.699997,116.199997,2864400.0,111.27373500000002,2014-07-24,EOG,0.00215611690265316,0.00215610182378878
257863,258585,115.58000200000001,115.860001,114.400002,114.82,1981100.0,109.952248,2014-07-25,EOG,-0.0118760011066403,-0.011876050220552001
257864,258586,114.82,115.019997,113.0,113.389999,2993500.0,108.58287,2014-07-28,EOG,-0.0124542974328273,-0.0124542849677756
257865,258587,113.269997,115.33000200000001,113.190002,114.239998,2502800.0,109.39684299999999,2014-07-29,EOG,0.007496329761775609,0.0074962431210534594
257866,258588,114.83000200000001,115.440002,113.360001,113.629997,1778300.0,108.812675,2014-07-30,EOG,-0.00533989815409941,-0.00533964470132431
257867,258589,112.839996,113.089996,109.370003,109.440002,4162500.0,104.800331,2014-07-31,EOG,-0.0368738660270965,-0.0368740219187016
257868,258590,108.650002,109.809998,107.160004,108.040001,3966400.0,103.459671,2014-08-01,EOG,-0.0127925168480623,-0.0127924065644662
257869,258591,108.739998,112.120003,108.08000200000001,111.809998,3002600.0,107.069855,2014-08-04,EOG,0.0348946015882847,0.0348944554341497
257870,258592,111.809998,111.809998,107.510002,108.629997,4848700.0,104.024666,2014-08-05,EOG,-0.028441142467223998,-0.0284411148992239
257871,258593,107.029999,108.510002,105.629997,106.639999,5007700.0,102.11904100000001,2014-08-06,EOG,-0.0183189725406088,-0.0183190468098788
257872,258594,107.629997,107.629997,105.400002,106.059998,2977200.0,101.563622,2014-08-07,EOG,-0.00543893670133466,-0.00543886914327529
257873,258595,106.07,107.900002,106.07,107.779999,2354100.0,103.210701,2014-08-08,EOG,0.0162172140729679,0.0162172452614981
257874,258596,108.720001,109.0,107.91999799999999,108.300003,2760600.0,103.708664,2014-08-11,EOG,0.0048247225837561,0.0048246799482714
257875,258597,107.889999,108.489998,106.339996,106.690002,3265800.0,102.166916,2014-08-12,EOG,-0.01486614464535,-0.0148661214718525
257876,258598,107.660004,107.879997,106.220001,106.349998,2337400.0,101.841339,2014-08-13,EOG,-0.00318671652964442,-0.00318684031892702
257877,258599,107.220001,107.230003,103.57,103.93,3490700.0,99.523926,2014-08-14,EOG,-0.022755130900232998,-0.0227550356888582
257878,258600,103.970001,106.41999799999999,103.66999799999999,106.089996,4557700.0,101.592354,2014-08-15,EOG,0.0207832235235574,0.0207831809872028
257879,258601,106.650002,106.910004,104.660004,105.43,3275500.0,100.960335,2014-08-18,EOG,-0.0062211276254116,-0.00622109553100547
257880,258602,106.099998,107.349998,105.660004,107.029999,3145300.0,102.492508,2014-08-19,EOG,0.0151759896597015,0.0151759366404249
257881,258603,107.089996,107.449997,106.099998,107.279999,2185900.0,102.731903,2014-08-20,EOG,0.00233573170050638,0.0023357937245238602
257882,258604,107.5,107.519997,106.019997,107.190002,2138800.0,102.645721,2014-08-21,EOG,-0.000838902010799947,-0.000838898218110451
257883,258605,106.589996,106.839996,105.610001,106.269997,2075400.0,101.764702,2014-08-22,EOG,-0.00858310498885773,-0.00858293668097887
257884,258606,106.93,108.25,106.599998,107.940002,1932600.0,103.36391400000001,2014-08-25,EOG,0.0157148005995242,0.0157147364933115
257885,258607,108.860001,110.470001,108.5,109.400002,3283200.0,104.762024,2014-08-26,EOG,0.0135260938358042,0.0135260327306646
257886,258608,109.43,109.449997,108.07,108.610001,1996700.0,104.005493,2014-08-27,EOG,-0.00722142405343362,-0.0072212155901058
257887,258609,108.32,109.08000200000001,108.099998,108.389999,1756800.0,103.794861,2014-08-28,EOG,-0.00202520072665779,-0.0020256145656419896
257888,258610,108.800003,109.980003,108.370003,109.879997,1802700.0,105.22166399999999,2014-08-29,EOG,0.01374637420633,0.0137466372704735
257889,258611,109.57,109.849998,107.08000200000001,107.709999,2755100.0,103.143684,2014-09-02,EOG,-0.0197485947380571,-0.0197487992286713
257890,258612,108.849998,109.08000200000001,107.459999,107.739998,1479100.0,103.17242399999999,2014-09-03,EOG,0.00027864042552527797,0.00027851638917941697
257891,258613,107.760002,107.989998,103.970001,104.610001,3937200.0,100.175102,2014-09-04,EOG,-0.0290515806820629,-0.0290513927798662
257892,258614,104.349998,105.290001,103.050003,105.18,3235500.0,100.72094,2014-09-05,EOG,0.00544883897397974,0.00544880025381134
257893,258615,104.07,104.07,100.75,101.410004,5549200.0,97.110748,2014-09-08,EOG,-0.0358435098004447,-0.03584327818977
257894,258616,101.629997,102.489998,100.82,101.309998,3636000.0,97.015015,2014-09-09,EOG,-0.000985812610566961,-0.000986155172619907
257895,258617,100.93,102.139999,99.33000200000001,102.010002,3713700.0,97.685333,2014-09-10,EOG,0.00690942530906158,0.00690952535602674
257896,258618,100.93,103.129997,100.5,103.059998,4596100.0,98.690826,2014-09-11,EOG,0.0102931829080217,0.0102930691051255
257897,258619,102.5,102.57,101.029999,101.32,3683100.0,97.024551,2014-09-12,EOG,-0.0168837881648696,-0.0168833498327838
257898,258620,100.800003,102.410004,100.120003,101.910004,3055400.0,97.589569,2014-09-15,EOG,0.00582345390085859,0.0058231741018555105
257899,258621,102.33000200000001,105.900002,101.75,105.220001,4116100.0,100.759232,2014-09-16,EOG,0.0324795265772717,0.0324796081844918
257900,258622,105.650002,106.089996,104.519997,105.190002,3689600.0,100.730522,2014-09-17,EOG,-0.00028493666962447995,-0.000285107391321815
257901,258623,105.82,105.989998,104.209999,104.980003,3003200.0,100.529404,2014-09-18,EOG,-0.00199659443837685,-0.0019963779447405
257902,258624,105.239998,105.900002,103.959999,104.370003,6346200.0,99.945274,2014-09-19,EOG,-0.00581053877530202,-0.00581063043025443
257903,258625,103.82,103.860001,100.57,101.739998,4437000.0,97.42675,2014-09-22,EOG,-0.0251990304213884,-0.025198859101307
257904,258626,101.550003,101.629997,100.449997,100.839996,5577300.0,96.564949,2014-09-23,EOG,-0.0088456301785701,-0.0088460980704953
257905,258627,100.940002,102.870003,99.550003,102.139999,4584400.0,97.809814,2014-09-24,EOG,0.0128914788739753,0.0128917399005053
257906,258628,102.639999,102.699997,100.139999,100.360001,3588900.0,96.10528599999999,2014-09-25,EOG,-0.0174269629016981,-0.0174270414864602
257907,258629,100.370003,102.410004,100.209999,101.879997,3327500.0,97.560837,2014-09-26,EOG,0.0151453792042198,0.0151454362779451
257908,258630,100.800003,102.059998,100.099998,101.870003,4300400.0,97.551262,2014-09-29,EOG,-9.81438894380737e-05,-9.80958018678146e-05
257909,258631,101.849998,101.849998,97.449997,99.019997,6422700.0,94.822067,2014-09-30,EOG,-0.0279770342694284,-0.0279768912935047
257910,258632,99.209999,99.730003,96.150002,96.849998,5856700.0,92.744072,2014-10-01,EOG,-0.021914677308183996,-0.0219147552589807
257911,258633,95.760002,97.639999,94.269997,97.059998,5381500.0,92.945183,2014-10-02,EOG,0.0021684512623081397,0.00216830154193692
257912,258634,97.720001,97.720001,95.57,96.57,4433900.0,92.475945,2014-10-03,EOG,-0.00504854565728274,-0.00504840315368649
257913,258635,96.839996,97.0,94.360001,95.089996,5114400.0,91.058693,2014-10-06,EOG,-0.0153256287351267,-0.0153257119188153
257914,258636,95.019997,96.019997,93.57,93.610001,5515800.0,89.64145699999999,2014-10-07,EOG,-0.0155639835506973,-0.0155641504075781
257915,258637,93.309998,94.690002,90.800003,94.559998,7723600.0,90.55115500000001,2014-10-08,EOG,0.0101481840037472,0.0101484562530878
257916,258638,93.639999,93.730003,90.879997,91.959999,9684400.0,88.061378,2014-10-09,EOG,-0.0274958060998779,-0.0274957598878122
257917,258639,91.07,91.949997,88.610001,89.83000200000001,9915400.0,86.021683,2014-10-10,EOG,-0.0231621971666173,-0.0231622120831037
257918,258640,89.25,90.300003,83.58000200000001,83.760002,9446700.0,80.209007,2014-10-13,EOG,-0.0675722189718143,-0.0675720790922391
257919,258641,85.400002,86.879997,83.5,83.839996,12228000.0,80.285629,2014-10-14,EOG,0.000955279249374108,0.0009550381815892631
257920,258642,82.029999,88.529999,81.07,88.16999799999999,11107300.0,84.601578,2014-10-15,EOG,0.0537574289914327,0.0516460186854018
257921,258643,85.190002,92.519997,85.190002,91.269997,10111100.0,87.576111,2014-10-16,EOG,0.0351593087306243,0.0351593407090698
257922,258644,94.199997,95.550003,90.260002,91.220001,8665500.0,87.528145,2014-10-17,EOG,-0.0005477064401729901,-0.000547781326211805
257923,258645,91.629997,93.129997,90.769997,92.760002,4420600.0,89.005821,2014-10-20,EOG,0.0168822954033814,0.0168822734391332
257924,258646,94.349998,96.150002,94.269997,96.029999,6298800.0,92.143478,2014-10-21,EOG,0.0352522673769844,0.0352522308052559
257925,258647,96.760002,97.0,91.980003,92.07,7672400.0,88.343773,2014-10-22,EOG,-0.0412368306740061,-0.0412371034180684
257926,258648,94.239998,94.839996,92.400002,93.400002,9219300.0,89.619911,2014-10-23,EOG,0.0144451380857369,0.0144455522971654
257927,258649,92.949997,93.019997,90.199997,92.099998,5417400.0,88.372536,2014-10-24,EOG,-0.0139185029987365,-0.0139186720788294
257928,258650,90.279999,90.279999,86.949997,88.43,7433800.0,84.851074,2014-10-27,EOG,-0.0398479228886223,-0.0398479704635823
257929,258651,88.809998,91.910004,87.550003,91.5,6123200.0,87.79682199999999,2014-10-28,EOG,0.0347166849060745,0.034716725093294
257930,258652,94.239998,95.32,91.760002,93.129997,5926100.0,89.36083199999999,2014-10-29,EOG,0.0178139705330109,0.017814174863388002
257931,258653,92.57,93.290001,91.029999,92.220001,3746200.0,88.487663,2014-10-30,EOG,-0.00977127204903383,-0.00977124481170133
257932,258654,91.949997,95.099998,90.739998,95.050003,5495200.0,91.20314,2014-10-31,EOG,0.0306876338230337,0.030687507799962
257933,258655,95.050003,96.809998,92.889999,93.32,7006200.0,89.543159,2014-11-03,EOG,-0.0182009193981698,-0.0182009778579387
257934,258656,89.66999799999999,90.989998,89.0,90.279999,8208000.0,86.626183,2014-11-04,EOG,-0.0325762016057531,-0.0325760930132875
257935,258657,95.5,97.470001,93.559998,96.099998,11401900.0,92.210655,2014-11-05,EOG,0.0644663288465568,0.0644660950871299
257936,258658,95.190002,99.18,95.110001,98.970001,8202200.0,94.964485,2014-11-06,EOG,0.0298645530714428,0.0298647560845942
257937,258659,99.720001,101.58000200000001,99.269997,99.550003,7009200.0,95.521027,2014-11-07,EOG,0.00586052775413881,0.00586038187470583
257938,258660,101.010002,102.25,97.989998,98.5,5947800.0,94.513512,2014-11-10,EOG,-0.010547572944331998,-0.0105474934038927
257939,258661,98.5,99.07,97.110001,98.75,4274300.0,94.753387,2014-11-11,EOG,0.00253799689508938,0.00253807106598991
257940,258662,98.68,99.349998,97.349998,97.559998,3433700.0,93.611565,2014-11-12,EOG,-0.012050461056341999,-0.012050653164557
257941,258663,96.5,97.440002,94.470001,95.849998,5859300.0,91.970772,2014-11-13,EOG,-0.0175276740646308,-0.0175276756360736
257942,258664,96.32,98.360001,96.199997,98.160004,3992700.0,94.187286,2014-11-14,EOG,0.0241002000070196,0.0241002195952054
257943,258665,97.010002,97.379997,95.730003,96.349998,4349400.0,92.45053100000001,2014-11-17,EOG,-0.0184393783254356,-0.0184393431768809
257944,258666,96.32,98.260002,96.089996,97.66999799999999,3917200.0,93.717102,2014-11-18,EOG,0.0136999862120857,0.0137000521785169
257945,258667,98.75,98.800003,96.779999,98.33000200000001,3830800.0,94.350388,2014-11-19,EOG,0.00675742192711004,0.00675748964385137
257946,258668,98.449997,100.290001,98.339996,99.440002,4624100.0,95.415482,2014-11-20,EOG,0.0112887082138973,0.0112885180252515
257947,258669,102.489998,103.040001,101.290001,101.739998,6378700.0,97.62236800000001,2014-11-21,EOG,0.0231292234105152,0.0231294846514585
257948,258670,101.18,101.739998,99.25,99.559998,4110900.0,95.530586,2014-11-24,EOG,-0.0214272819114569,-0.0214271677103828
257949,258671,100.279999,100.32,96.720001,96.739998,5592000.0,92.82473,2014-11-25,EOG,-0.0283244991295248,-0.0283246289338013
257950,258672,96.620003,96.629997,93.860001,94.07,5346100.0,90.26281,2014-11-26,EOG,-0.0275995416307702,-0.027599731808967003
257951,258673,87.160004,88.43,85.190002,86.720001,9472100.0,83.210274,2014-11-28,EOG,-0.0781333530387543,-0.0781332943552673
257952,258674,85.519997,87.58000200000001,83.660004,87.239998,10063500.0,83.70922900000001,2014-12-01,EOG,0.00599631483006524,0.0059962752998585795
257953,258675,87.379997,91.33000200000001,86.870003,90.300003,10159600.0,86.64537800000001,2014-12-02,EOG,0.0350755709385402,0.0350757114872928
257954,258676,91.709999,93.599998,90.800003,91.800003,6237200.0,88.084671,2014-12-03,EOG,0.0166113072990461,0.0166112951291928
257955,258677,90.790001,93.0,89.75,93.0,5108100.0,89.23610699999999,2014-12-04,EOG,0.0130719225823073,0.0130718623179129
257956,258678,91.910004,92.050003,89.779999,90.75,7572500.0,87.07717099999999,2014-12-05,EOG,-0.0241935251612893,-0.0241935483870968
257957,258679,89.08000200000001,89.5,87.510002,88.190002,8672200.0,84.620789,2014-12-08,EOG,-0.0282092536056322,-0.028209344352617
257958,258680,87.0,91.120003,86.769997,89.150002,8197500.0,85.541931,2014-12-09,EOG,0.0108855283776661,0.0108855876882732
257959,258681,86.379997,87.260002,85.540001,86.790001,8821700.0,83.277435,2014-12-10,EOG,-0.0264723507352203,-0.026472248424627004
257960,258682,87.190002,89.760002,86.129997,86.860001,5808100.0,83.344589,2014-12-11,EOG,0.000806388909552869,0.000806544523487052
257961,258683,85.309998,88.41999799999999,85.099998,86.370003,6606200.0,82.87442800000001,2014-12-12,EOG,-0.00564117005844256,-0.00564123871009392
257962,258684,87.089996,88.160004,84.949997,85.339996,6867000.0,81.886116,2014-12-15,EOG,-0.0119254156420844,-0.0119255177054932
257963,258685,83.860001,89.389999,83.779999,85.470001,8303700.0,82.010864,2014-12-16,EOG,0.00152343286131673,0.00152337715131834
257964,258686,87.610001,92.209999,86.110001,91.139999,10269500.0,87.451378,2014-12-17,EOG,0.0663389426064334,0.0663390421628756
257965,258687,93.83000200000001,94.389999,88.900002,92.449997,8888600.0,88.70835100000001,2014-12-18,EOG,0.0143733927211529,0.0143734695454627
257966,258688,93.629997,95.089996,92.449997,95.019997,7853400.0,91.174347,2014-12-19,EOG,0.0277989160231376,0.0277988110697289
257967,258689,94.209999,95.620003,93.68,95.059998,6746600.0,91.21273000000001,2014-12-22,EOG,0.000420984643849431,0.00042097454496858904
257968,258690,95.739998,97.269997,94.540001,96.410004,4243900.0,92.50810200000001,2014-12-23,EOG,0.0142016580361097,0.014201620328248002
257969,258691,95.610001,95.639999,92.510002,94.050003,3012800.0,90.243607,2014-12-24,EOG,-0.0244788829415179,-0.0244787978641718
257970,258692,94.900002,95.199997,93.33000200000001,93.82,2210600.0,90.02293399999999,2014-12-26,EOG,-0.0024453034107999603,-0.0024455395285847303
257971,258693,94.550003,95.209999,93.449997,94.33000200000001,3397000.0,90.512291,2014-12-29,EOG,0.00543591480810868,0.005435962481347371
257972,258694,93.5,94.33000200000001,91.889999,92.699997,3379400.0,88.94824200000001,2014-12-30,EOG,-0.0172799625633165,-0.0172798151748157
257973,258695,91.970001,93.550003,90.75,92.07,3329200.0,88.343773,2014-12-31,EOG,-0.00679573858244431,-0.0067960843623328104
257974,258696,91.010002,92.989998,90.360001,92.239998,3462300.0,88.506866,2015-01-02,EOG,0.0018461176658144398,0.0018463994786577199
257975,258697,89.959999,90.779999,86.019997,86.68,6173600.0,83.17189,2015-01-05,EOG,-0.0602775382420613,-0.0602775164847683
257976,258698,85.839996,86.599998,82.760002,84.209999,8142000.0,80.801849,2015-01-06,EOG,-0.0284956972842627,-0.0284956275957546
257977,258699,85.18,85.730003,82.720001,83.68,5950300.0,80.293312,2015-01-07,EOG,-0.0062936307311483,-0.0062937775358480295
257978,258700,84.720001,87.650002,84.07,86.879997,5836500.0,83.363785,2015-01-08,EOG,0.0382407067726884,0.0382408819311664
257979,258701,87.019997,88.029999,86.010002,87.459999,4036600.0,83.920334,2015-01-09,EOG,0.00667614840185093,0.00667589802057655
257980,258702,85.110001,85.349998,83.199997,84.510002,4810300.0,81.089729,2015-01-12,EOG,-0.0337296679491289,-0.033729671092267
257981,258703,84.970001,86.660004,84.050003,85.059998,5444200.0,81.61747,2015-01-13,EOG,0.00650811152667674,0.0065080580639436105
257982,258704,84.07,88.089996,83.66999799999999,87.739998,6698200.0,84.35560600000001,2015-01-14,EOG,0.0335484057518567,0.0315071721492399
257983,258705,89.040001,89.5,86.449997,86.529999,4941700.0,83.192261,2015-01-15,EOG,-0.0137909625117267,-0.0137907343011336
257984,258706,86.860001,90.540001,86.540001,90.309998,5483500.0,86.826477,2015-01-16,EOG,0.0436845441669147,0.0436842602991361
257985,258707,89.089996,89.779999,87.519997,89.33000200000001,5969500.0,85.88427,2015-01-20,EOG,-0.0108516092389651,-0.0108514674089573
257986,258708,90.589996,91.400002,89.68,90.540001,4911900.0,87.04759200000001,2015-01-21,EOG,0.0135452277815249,0.0135452700426448
257987,258709,91.379997,91.379997,88.58000200000001,90.360001,4471600.0,86.874542,2015-01-22,EOG,-0.00198799295906993,-0.0019880715486186896
257988,258710,90.07,92.519997,89.699997,90.790001,4433700.0,87.28795600000001,2015-01-23,EOG,0.00475874739000059,0.0047587427538873205
257989,258711,91.230003,92.389999,90.150002,92.33000200000001,3431100.0,88.768555,2015-01-26,EOG,0.0169622370353135,0.0169622313364661
257990,258712,91.940002,94.410004,91.120003,93.0,5283000.0,89.412704,2015-01-27,EOG,0.00725649978193288,0.00725655784129642
257991,258713,92.33000200000001,92.690002,87.760002,88.099998,5772900.0,84.701729,2015-01-28,EOG,-0.0526879826830873,-0.0526881935483871
257992,258714,89.120003,89.410004,86.760002,88.910004,5188700.0,85.480469,2015-01-29,EOG,0.009193909134959991,0.009194165929492959
257993,258715,88.160004,90.07,87.400002,89.029999,7469900.0,85.59584,2015-01-30,EOG,0.00134967673141806,0.00134962315376796
257994,258716,90.989998,92.57,89.529999,92.519997,5615500.0,88.95121800000001,2015-02-02,EOG,0.0392002461801881,0.0392002475480202
257995,258717,94.720001,97.879997,94.650002,96.309998,8906600.0,92.595016,2015-02-03,EOG,0.0409640034383791,0.0409641280035924
257996,258718,94.400002,97.529999,93.540001,95.190002,9869100.0,91.51821899999999,2015-02-04,EOG,-0.0116291032338068,-0.0116290730272882
257997,258719,95.709999,97.290001,95.160004,96.190002,5596600.0,92.47966,2015-02-05,EOG,0.0105054601204597,0.0105053049583925
257998,258720,96.989998,97.209999,95.57,95.790001,5297800.0,92.09506999999999,2015-02-06,EOG,-0.00415864418186651,-0.004158446737531071
257999,258721,96.599998,97.230003,95.779999,95.949997,4249100.0,92.248901,2015-02-09,EOG,0.00167034999810522,0.0016702787172953
258000,258722,96.650002,96.690002,93.839996,95.260002,4308300.0,91.585526,2015-02-10,EOG,-0.00719114258065801,-0.00719119355470121
258001,258723,93.839996,94.089996,92.150002,93.199997,6332300.0,89.604988,2015-02-11,EOG,-0.0216250109214855,-0.0216250782778695
258002,258724,94.959999,95.239998,93.470001,94.800003,3944500.0,91.143272,2015-02-12,EOG,0.0171673925116758,0.0171674469045315
258003,258725,95.940002,96.970001,95.25,96.91999799999999,4158500.0,93.181496,2015-02-13,EOG,0.0223628574580907,0.0223628157480122
258004,258726,96.08000200000001,96.66999799999999,95.650002,96.489998,4234300.0,92.76808199999999,2015-02-17,EOG,-0.0044366533887799705,-0.0044366488740539296
258005,258727,96.489998,96.489998,94.5,95.309998,4534000.0,91.63359799999999,2015-02-18,EOG,-0.012229249279941002,-0.0122292468075292
258006,258728,86.68,94.739998,86.58000200000001,93.800003,18682400.0,90.181839,2015-02-19,EOG,-0.0158430862880666,-0.0158429863779872
258007,258729,93.089996,93.459999,90.07,91.08000200000001,7937800.0,87.566772,2015-02-20,EOG,-0.0289977120559717,-0.0289978775373815
258008,258730,90.059998,92.099998,89.25,91.93,5501300.0,88.38398000000001,2015-02-23,EOG,0.00933239836681432,0.00933243282098317
258009,258731,92.849998,93.0,91.260002,91.610001,4215000.0,88.076317,2015-02-24,EOG,-0.00348098150818721,-0.00348089850973576
258010,258732,91.540001,93.25,91.290001,93.029999,5787800.0,89.441544,2015-02-25,EOG,0.0155005005488591,0.0155004692118714
258011,258733,91.809998,92.25,89.610001,90.129997,5427100.0,86.65340400000001,2015-02-26,EOG,-0.0311727624022232,-0.0311727618098759
258012,258734,90.629997,90.709999,89.290001,89.720001,3837600.0,86.259232,2015-02-27,EOG,-0.00454883457319222,-0.0045489405708069
258013,258735,89.720001,89.720001,87.08000200000001,89.059998,5347800.0,85.624664,2015-03-02,EOG,-0.00735652271979426,-0.0073562527044555
258014,258736,88.980003,91.110001,88.599998,90.370003,4381400.0,86.88414,2015-03-03,EOG,0.0147092664795743,0.014709241291471999
258015,258737,90.199997,90.949997,88.550003,90.489998,3924800.0,86.999512,2015-03-04,EOG,0.00132788331679401,0.00132781892239175
258016,258738,89.849998,90.519997,89.370003,89.589996,2688100.0,86.13423900000001,2015-03-05,EOG,-0.009945722454167359,-0.00994587269191893
258017,258739,88.91999799999999,90.0,88.230003,88.57,4063600.0,85.153587,2015-03-06,EOG,-0.0113851589261733,-0.0113851551014692
258018,258740,88.08000200000001,89.25,87.639999,87.720001,3443600.0,84.33638,2015-03-09,EOG,-0.0095968593783371,-0.00959691769222082
258019,258741,86.879997,88.57,86.150002,86.190002,4862400.0,82.865387,2015-03-10,EOG,-0.017441974625897,-0.0174418488663719
258020,258742,86.41999799999999,87.370003,85.879997,86.550003,3973700.0,83.21151,2015-03-11,EOG,0.0041769309542958296,0.00417683016180925
258021,258743,87.050003,87.190002,85.620003,85.709999,3051700.0,82.403908,2015-03-12,EOG,-0.009705412147910871,-0.00970541849663487
258022,258744,85.199997,85.660004,84.099998,85.389999,4415600.0,82.096237,2015-03-13,EOG,-0.0037336942806158705,-0.00373352005289362
258023,258745,85.110001,88.029999,85.059998,87.900002,4953800.0,84.50943000000001,2015-03-16,EOG,0.02939468467964,0.029394578163656
258024,258746,86.860001,87.970001,86.400002,86.800003,3798600.0,83.451859,2015-03-17,EOG,-0.0125142365769121,-0.0125142090440452
258025,258747,86.08000200000001,91.370003,86.0,90.660004,5386800.0,87.162964,2015-03-18,EOG,0.0444700099490893,0.0444700560667031
258026,258748,89.400002,89.900002,88.360001,89.529999,3558700.0,86.07656899999999,2015-03-19,EOG,-0.0124639520060378,-0.012464206377048
258027,258749,89.75,91.940002,89.43,90.68,5980000.0,87.18219,2015-03-20,EOG,0.0128446220945446,0.0128448677856012
258028,258750,91.25,91.410004,89.0,89.0,3200700.0,85.566994,2015-03-23,EOG,-0.0185266738539146,-0.0185266872518748
258029,258751,89.199997,89.940002,88.639999,88.839996,2681200.0,85.41317,2015-03-24,EOG,-0.00179770251132116,-0.00179779775280897
258030,258752,89.68,90.650002,88.790001,89.959999,3664800.0,86.489975,2015-03-25,EOG,0.0126070136490661,0.012606968149796003
258031,258753,91.489998,91.93,90.25,91.360001,4857100.0,87.83596800000001,2015-03-26,EOG,0.0155624163378472,0.0155624946149677
258032,258754,90.620003,91.120003,90.139999,90.559998,2539100.0,87.066826,2015-03-27,EOG,-0.00875657225067517,-0.00875660016684987
258033,258755,91.639999,92.5,90.779999,92.139999,3478900.0,88.585884,2015-03-30,EOG,0.0174470354529748,0.0174470078941478
258034,258756,91.129997,92.470001,90.83000200000001,91.690002,3576000.0,88.15323599999999,2015-03-31,EOG,-0.0048839383936156704,-0.00488383986199081
258035,258757,92.040001,93.349998,91.059998,91.220001,3813800.0,87.701355,2015-04-01,EOG,-0.0051260852182443105,-0.00512597872993836
258036,258758,90.300003,92.970001,89.230003,92.709999,4596300.0,89.133904,2015-04-02,EOG,0.0163343998504926,0.0163341151465237
258037,258759,93.360001,95.400002,93.300003,94.870003,4770000.0,91.210548,2015-04-06,EOG,0.0232980258555713,0.0232985009524163
258038,258760,95.199997,95.989998,94.120003,94.269997,5233200.0,90.633713,2015-04-07,EOG,-0.00632421373019276,-0.00632450702041187
258039,258761,95.010002,95.58000200000001,93.800003,94.040001,3274400.0,90.412598,2015-04-08,EOG,-0.00243965509831867,-0.00243975821914999
258040,258762,94.110001,96.07,94.110001,95.709999,3408000.0,92.018173,2015-04-09,EOG,0.0177583106283485,0.0177583792241771
258041,258763,95.870003,96.599998,95.25,96.589996,2570400.0,92.86421999999999,2015-04-10,EOG,0.00919434686015763,0.00919441029353685
258042,258764,96.75,96.900002,94.199997,94.690002,3111400.0,91.037514,2015-04-13,EOG,-0.0196707192501052,-0.0196707120683595
258043,258765,95.660004,96.949997,95.339996,96.459999,3204400.0,92.90406,2015-04-14,EOG,0.0205030422952894,0.0186925436964294
258044,258766,96.760002,98.339996,96.43,97.959999,5859500.0,94.34878499999999,2015-04-15,EOG,0.0155507197424958,0.0155504874098122
258045,258767,97.83000200000001,98.949997,97.16999799999999,98.0,4054400.0,94.387299,2015-04-16,EOG,0.000408208754357542,0.000408340143000618
258046,258768,97.040001,97.470001,96.389999,97.230003,3201200.0,93.645676,2015-04-17,EOG,-0.007857232994875729,-0.00785711224489805
258047,258769,97.18,99.010002,97.18,97.739998,3130700.0,94.13687900000001,2015-04-20,EOG,0.005245335620194471,0.005245243075843621
258048,258770,97.83000200000001,98.32,96.360001,96.589996,3238300.0,93.029274,2015-04-21,EOG,-0.0117658988885747,-0.0117659302591759
258049,258771,96.940002,98.599998,96.300003,97.699997,2897800.0,94.098351,2015-04-22,EOG,0.0114918342800352,0.011491883693627998
258050,258772,97.980003,99.25,97.839996,98.269997,2708400.0,94.647354,2015-04-23,EOG,0.0058343530377063,0.0058341864636906
258051,258773,97.900002,97.970001,95.910004,96.720001,3139600.0,93.154472,2015-04-24,EOG,-0.0157730981047818,-0.0157728304397934
258052,258774,97.550003,97.959999,96.559998,97.360001,2980500.0,93.770889,2015-04-27,EOG,0.00661714877198816,0.00661703880668907
258053,258775,97.639999,98.809998,97.639999,98.459999,3736600.0,94.830345,2015-04-28,EOG,0.0112983465476155,0.0112982537869941
258054,258776,98.220001,99.980003,97.790001,99.739998,3902600.0,96.063141,2015-04-29,EOG,0.0130000159758989,0.0130001931038004
258055,258777,100.0,100.440002,98.480003,98.949997,3462000.0,95.302277,2015-04-30,EOG,-0.0079204572334356,-0.00792060372810521
258056,258778,99.209999,101.0,97.610001,98.900002,3584700.0,95.25412,2015-05-01,EOG,-0.0005053079686648809,-0.0005052551947020151
258057,258779,99.110001,101.360001,98.550003,99.389999,7312700.0,95.72604399999999,2015-05-04,EOG,0.00495436837797669,0.00495446906057695
258058,258780,98.699997,100.199997,94.529999,94.540001,11762000.0,91.05484799999999,2015-05-05,EOG,-0.0487975456292751,-0.0487976461293655
258059,258781,96.209999,96.860001,94.489998,95.08000200000001,5163500.0,91.57495899999999,2015-05-06,EOG,0.00571206268995139,0.00571187850949983
258060,258782,96.099998,96.099998,92.41999799999999,93.5,5197800.0,90.05319200000001,2015-05-07,EOG,-0.0166177196978052,-0.0166176058767856
258061,258783,94.480003,94.5,92.559998,93.5,4922300.0,90.05319200000001,2015-05-08,EOG,0.0,0.0
258062,258784,94.050003,94.239998,91.470001,91.610001,3952400.0,88.232864,2015-05-11,EOG,-0.0202139197908719,-0.0202138930481284
258063,258785,91.760002,93.589996,91.709999,93.410004,3468500.0,89.966492,2015-05-12,EOG,0.0196483251410722,0.0196485425210289
258064,258786,94.040001,94.07,90.980003,91.599998,3548300.0,88.223228,2015-05-13,EOG,-0.0193768142032258,-0.0193770037736001
258065,258787,91.989998,92.08000200000001,90.68,90.730003,3582200.0,87.3853,2015-05-14,EOG,-0.00949781615336054,-0.00949776221610843
258066,258788,90.32,91.239998,89.25,90.470001,3267300.0,87.134872,2015-05-15,EOG,-0.0028657909282224802,-0.0028656672699547397
258067,258789,90.559998,92.040001,89.900002,91.800003,3018000.0,88.41585500000001,2015-05-18,EOG,0.0147011520255633,0.0147010278025752
258068,258790,91.480003,91.610001,90.239998,90.260002,3588500.0,86.932632,2015-05-19,EOG,-0.016775531945034,-0.016775609473563997
258069,258791,90.599998,90.720001,89.760002,90.459999,3734400.0,87.125259,2015-05-20,EOG,0.00221581925645609,0.0022157876752539898
258070,258792,91.16999799999999,91.83000200000001,90.68,91.489998,3958000.0,88.11727900000001,2015-05-21,EOG,0.0113861354489631,0.0113862371367039
258071,258793,90.400002,91.389999,90.07,90.260002,3055500.0,86.932632,2015-05-22,EOG,-0.0134439807202853,-0.0134440488237851
258072,258794,89.25,89.809998,88.550003,89.150002,3920700.0,85.863548,2015-05-26,EOG,-0.0122978446114458,-0.0122978060647506
258073,258795,89.129997,89.940002,88.510002,89.0,3016900.0,85.719078,2015-05-27,EOG,-0.0016825533461533,-0.00168257988373344
258074,258796,88.550003,89.360001,88.0,89.150002,3790800.0,85.863548,2015-05-28,EOG,0.0016853891032284599,0.0016854157303369801
258075,258797,89.41999799999999,89.519997,88.260002,88.690002,3948900.0,85.420509,2015-05-29,EOG,-0.00515980308663688,-0.005159842845544721
258076,258798,89.019997,89.120003,88.18,88.760002,2886500.0,85.487938,2015-06-01,EOG,0.0007893771740461459,0.0007892659648378599
258077,258799,89.019997,90.349998,88.209999,89.769997,3581600.0,86.460701,2015-06-02,EOG,0.0113789503263022,0.0113789429612676
258078,258800,89.550003,90.470001,88.970001,89.010002,2158400.0,85.728714,2015-06-03,EOG,-0.00846612381733991,-0.00846602456720591
258079,258801,88.230003,89.129997,87.279999,87.379997,3774200.0,84.15879100000001,2015-06-04,EOG,-0.0183126857589395,-0.0183126049137713
258080,258802,87.0,90.639999,86.82,89.68,4429900.0,86.374016,2015-06-05,EOG,0.0263219679569779,0.0263218480083034
258081,258803,89.370003,89.959999,88.629997,89.110001,2755700.0,85.825012,2015-06-08,EOG,-0.00635612450855583,-0.006355921052631721
258082,258804,90.019997,91.480003,89.089996,89.089996,2661000.0,85.805756,2015-06-09,EOG,-0.00022436349906951298,-0.000224497809174107
258083,258805,90.389999,90.709999,89.660004,90.410004,2914800.0,87.077095,2015-06-10,EOG,0.0148164768806418,0.0148165681812356
258084,258806,91.0,91.050003,90.230003,90.650002,2300900.0,87.30825,2015-06-11,EOG,0.00265460164926257,0.0026545513702223
258085,258807,90.160004,90.43,89.120003,89.529999,2464100.0,86.229546,2015-06-12,EOG,-0.0123551210796231,-0.0123552451769389
258086,258808,88.510002,89.860001,88.5,89.220001,2795300.0,85.93096899999999,2015-06-15,EOG,-0.00346258346298145,-0.0034625042272145
258087,258809,89.07,90.360001,89.029999,90.08000200000001,2286400.0,86.75927,2015-06-16,EOG,0.00963914418328038,0.009639105473670641
258088,258810,90.68,91.150002,88.41999799999999,89.019997,4998100.0,85.73833499999999,2015-06-17,EOG,-0.0117674457150226,-0.0117673731845609
258089,258811,89.760002,90.129997,88.540001,88.809998,3602500.0,85.536064,2015-06-18,EOG,-0.0023591664102179397,-0.00235900929091259
258090,258812,88.290001,89.120003,88.239998,88.269997,4298600.0,85.015999,2015-06-19,EOG,-0.00608006699957575,-0.00608040774868601
258091,258813,88.599998,88.66999799999999,87.449997,88.08000200000001,2845600.0,84.832985,2015-06-22,EOG,-0.00215270069343065,-0.00215243011733657
258092,258814,88.279999,88.82,87.660004,88.790001,3613300.0,85.51681500000001,2015-06-23,EOG,0.00806089753885231,0.00806084223295112
258093,258815,88.540001,89.07,88.099998,88.339996,3785900.0,85.083412,2015-06-24,EOG,-0.00506804422030915,-0.0050681945594301895
258094,258816,88.16999799999999,88.269997,87.300003,87.650002,3797800.0,84.418839,2015-06-25,EOG,-0.00781084096627427,-0.0078106636998263
258095,258817,87.599998,88.699997,87.08000200000001,88.059998,11406600.0,84.813744,2015-06-26,EOG,0.00467792503045428,0.00467764963656236
258096,258818,86.989998,87.940002,86.150002,86.25,4022300.0,83.070465,2015-06-29,EOG,-0.0205542040450425,-0.020554145368025002
258097,258819,86.989998,87.900002,86.339996,87.550003,3941400.0,84.322525,2015-06-30,EOG,0.0150722642518011,0.0150724985507247
258098,258820,87.849998,87.849998,84.839996,85.769997,4644500.0,82.608147,2015-07-01,EOG,-0.0203311985735721,-0.0203313071274253
258099,258821,85.949997,86.699997,85.589996,85.66999799999999,2699900.0,82.511841,2015-07-02,EOG,-0.0011658172165512901,-0.00116589720762139
258100,258822,84.489998,86.18,84.050003,85.089996,3513300.0,81.953209,2015-07-06,EOG,-0.00677032524337939,-0.00677018808848351
258101,258823,85.779999,87.099998,83.83000200000001,86.720001,5118300.0,83.523117,2015-07-07,EOG,0.0191561504321325,0.019156247227935002
258102,258824,86.099998,86.91999799999999,84.0,84.489998,4681200.0,81.375336,2015-07-08,EOG,-0.0257148089911443,-0.0257149789470136
258103,258825,85.989998,87.349998,85.18,85.300003,3784000.0,82.155479,2015-07-09,EOG,0.009586971167774959,0.009586992770434179
258104,258826,85.980003,86.760002,84.449997,84.540001,2903800.0,81.4235,2015-07-10,EOG,-0.00890967965751854,-0.00890975349672618
258105,258827,84.529999,84.790001,83.470001,84.209999,3830200.0,81.10566700000001,2015-07-13,EOG,-0.00390345539064285,-0.00390350125498584
258106,258828,84.199997,85.639999,84.099998,85.230003,3276100.0,82.088066,2015-07-14,EOG,0.0121125814796641,0.0121126233477333
258107,258829,84.620003,85.230003,83.050003,83.25,3917300.0,80.339401,2015-07-15,EOG,-0.0213023047710735,-0.0232312909809471
258108,258830,83.739998,83.800003,82.339996,82.400002,4019300.0,79.51911899999999,2015-07-16,EOG,-0.010210208064658,-0.0102101861861862
258109,258831,81.970001,82.150002,80.260002,80.5,6069300.0,77.68555500000001,2015-07-17,EOG,-0.0230581528449781,-0.0230582761393623
258110,258832,80.239998,80.25,77.91999799999999,77.93,7054000.0,75.205414,2015-07-20,EOG,-0.0319253817521158,-0.0319254658385092
258111,258833,78.089996,78.379997,76.940002,77.33000200000001,6823700.0,74.62638100000001,2015-07-21,EOG,-0.00769935260246035,-0.00769919158218935
258112,258834,77.18,77.489998,75.760002,76.089996,7205200.0,73.429741,2015-07-22,EOG,-0.0160350801414313,-0.0160352511047394
258113,258835,76.199997,76.82,75.470001,76.32,6335400.0,73.65169499999999,2015-07-23,EOG,0.00302267169919612,0.00302278896163943
258114,258836,76.099998,76.58000200000001,74.620003,75.160004,5850200.0,72.532257,2015-07-24,EOG,-0.0151990799397081,-0.0151991090146749
258115,258837,74.099998,74.730003,72.860001,73.190002,5621300.0,70.631119,2015-07-27,EOG,-0.0262109312274675,-0.0262107756141151
258116,258838,73.400002,77.559998,73.400002,76.849998,7887200.0,74.163155,2015-07-28,EOG,0.0500067965792812,0.0500067755155955
258117,258839,76.5,79.010002,76.5,77.739998,6360600.0,75.022041,2015-07-29,EOG,0.0115810337356872,0.0115810022532465
258118,258840,77.650002,78.720001,76.800003,78.540001,4539800.0,75.794083,2015-07-30,EOG,0.0102908690527361,0.0102907514867701
258119,258841,78.0,78.309998,77.0,77.190002,4190200.0,74.491295,2015-07-31,EOG,-0.0171885185285506,-0.0171886807080636
258120,258842,76.199997,77.629997,75.449997,76.440002,5136500.0,73.76750200000001,2015-08-03,EOG,-0.009716477609900579,-0.00971628424106008
258121,258843,77.08000200000001,77.769997,76.349998,76.739998,3981900.0,74.057007,2015-08-04,EOG,0.00392456016742981,0.00392459435048154
258122,258844,78.059998,78.949997,75.959999,76.089996,4896800.0,73.429741,2015-08-05,EOG,-0.00847004254438732,-0.0084701852611464
258123,258845,75.650002,78.339996,75.300003,77.68,6709500.0,74.96414200000001,2015-08-06,EOG,0.0208961788384898,0.0208963606726962
258124,258846,75.25,78.699997,73.029999,73.760002,8476100.0,71.181206,2015-08-07,EOG,-0.0504632734941459,-0.0504634140061793
258125,258847,73.66999799999999,76.480003,73.620003,76.269997,6935200.0,73.603424,2015-08-10,EOG,0.0340288980211996,0.0340292154547392
258126,258848,75.129997,77.43,74.18,77.300003,5976000.0,74.597427,2015-08-11,EOG,0.0135048472744963,0.0135047337159329
258127,258849,77.32,80.260002,76.5,79.93,8234000.0,77.13549,2015-08-12,EOG,0.0340234657155134,0.0340232457688261
258128,258850,79.300003,80.5,78.339996,79.68,5889700.0,76.894234,2015-08-13,EOG,-0.00312769128711066,-0.00312773676967348
258129,258851,79.5,80.879997,78.800003,79.93,3908100.0,77.13549,2015-08-14,EOG,0.0031375044323871397,0.00313755020080331
258130,258852,79.5,80.160004,78.889999,80.010002,3747200.0,77.2127,2015-08-17,EOG,0.00100096596261978,0.0010009007881894801
258131,258853,79.709999,80.540001,79.279999,80.410004,3536700.0,77.598701,2015-08-18,EOG,0.00499919054766917,0.0049993999500213
258132,258854,79.870003,79.879997,76.07,77.07,6122900.0,74.375488,2015-08-19,EOG,-0.0415369453156181,-0.0415371699272644
258133,258855,77.019997,78.440002,76.610001,76.730003,6793500.0,74.047371,2015-08-20,EOG,-0.00441162819664465,-0.00441153496821067
258134,258856,76.389999,77.43,74.120003,74.860001,7769100.0,72.24274399999999,2015-08-21,EOG,-0.0243712501285157,-0.0243711967533743
258135,258857,70.0,73.279999,68.150002,69.260002,9518800.0,66.838539,2015-08-24,EOG,-0.0748061978376681,-0.0748062907453073
258136,258858,72.099998,72.110001,68.290001,68.360001,6720600.0,65.96998599999999,2015-08-25,EOG,-0.0129947933182679,-0.0129945274907731
258137,258859,70.209999,71.040001,68.400002,70.989998,6763700.0,68.508049,2015-08-26,EOG,0.0384729958863412,0.0384727466578008
258138,258860,72.989998,76.099998,72.860001,75.790001,7160700.0,73.14022800000001,2015-08-27,EOG,0.0676151060731565,0.0676152012287703
258139,258861,75.5,79.339996,75.410004,77.309998,6962200.0,74.607079,2015-08-28,EOG,0.0200553244105284,0.0200553764341551
258140,258862,76.199997,79.160004,74.57,78.309998,6864000.0,75.572121,2015-08-31,EOG,0.0129349924019944,0.0129349376001795
258141,258863,76.019997,77.32,75.18,76.019997,6376900.0,73.362175,2015-09-01,EOG,-0.0292428738370332,-0.0292427666771232
258142,258864,77.059998,77.709999,74.870003,77.709999,5356500.0,74.993111,2015-09-02,EOG,0.0222312928971913,0.0222310190304269
258143,258865,78.25,80.160004,76.790001,77.449997,6228100.0,74.742165,2015-09-03,EOG,-0.00334625403125366,-0.00334579852458883
258144,258866,76.220001,77.440002,75.949997,76.889999,4700700.0,74.201752,2015-09-04,EOG,-0.00723036320930759,-0.00723044572874543
258145,258867,77.58000200000001,78.18,75.449997,77.660004,5137600.0,74.944855,2015-09-08,EOG,0.0100146287651,0.0100143713098499
258146,258868,78.739998,79.349998,76.66999799999999,76.93,6445400.0,74.240356,2015-09-09,EOG,-0.00940023167701098,-0.00939999951583825
258147,258869,77.57,78.239998,76.129997,78.059998,4814700.0,75.330864,2015-09-10,EOG,0.0146888843043802,0.0146886520213179
258148,258870,76.75,77.410004,75.839996,77.150002,4571800.0,74.452667,2015-09-11,EOG,-0.0116578644312376,-0.0116576482617895
258149,258871,77.150002,77.150002,76.040001,76.43,3705000.0,73.757851,2015-09-14,EOG,-0.009332318478262209,-0.00933249489740773
258150,258872,77.040001,77.800003,76.559998,77.25,3650500.0,74.549171,2015-09-15,EOG,0.0107286206047408,0.0107287714248332
258151,258873,77.68,80.16999799999999,77.459999,79.940002,3996000.0,77.145157,2015-09-16,EOG,0.03482246636921,0.0348220323624597
258152,258874,80.019997,81.18,79.120003,79.660004,5499100.0,76.874916,2015-09-17,EOG,-0.00350301963867927,-0.00350260186383289
258153,258875,78.860001,79.190002,75.93,76.260002,6047600.0,73.593788,2015-09-18,EOG,-0.0426813864746206,-0.0426814188962381
258154,258876,77.050003,77.33000200000001,75.870003,76.519997,3258700.0,73.844696,2015-09-21,EOG,0.0034093638446766102,0.00340932327801413
258155,258877,75.43,76.660004,74.690002,75.220001,3433900.0,72.59015699999999,2015-09-22,EOG,-0.0169888843472251,-0.0169889708699283
258156,258878,75.239998,75.93,72.870003,73.040001,3891400.0,70.486366,2015-09-23,EOG,-0.0289817667703901,-0.0289816534301827
258157,258879,72.290001,73.720001,71.480003,73.260002,4443600.0,70.698677,2015-09-24,EOG,0.0030120860536349,0.00301206184266056
258158,258880,74.059998,74.209999,72.190002,72.790001,3894300.0,70.245102,2015-09-25,EOG,-0.00641560803181651,-0.00641551989037614
258159,258881,71.739998,72.190002,69.099998,69.43,4581900.0,67.002579,2015-09-28,EOG,-0.0461601294279564,-0.0461601999428465
258160,258882,69.860001,70.66999799999999,69.139999,70.129997,3773600.0,67.678101,2015-09-29,EOG,0.0100820298275384,0.0100820538672044
258161,258883,70.849998,72.940002,70.66999799999999,72.800003,4809200.0,70.254768,2015-09-30,EOG,0.0380723891765227,0.0380722389022774
258162,258884,73.800003,75.68,73.0,73.589996,5683400.0,71.017136,2015-10-01,EOG,0.0108514770129196,0.0108515517506229
258163,258885,72.66999799999999,77.449997,71.589996,77.059998,6032600.0,74.365829,2015-10-02,EOG,0.0471533095899561,0.0471531755484806
258164,258886,78.160004,81.699997,78.0,80.650002,7429300.0,77.83030699999999,2015-10-05,EOG,0.0465869613313932,0.0465871281232062
258165,258887,80.720001,83.730003,80.550003,82.839996,6777000.0,79.943726,2015-10-06,EOG,0.0271541907190471,0.0271542956688333
258166,258888,84.370003,85.400002,82.18,83.769997,6893100.0,80.841225,2015-10-07,EOG,0.0112266345954402,0.0112264732605734
258167,258889,83.309998,87.269997,83.07,87.040001,6795000.0,83.99691800000001,2015-10-08,EOG,0.0390356900207784,0.0390355033676317
258168,258890,87.349998,88.300003,86.099998,87.300003,5802200.0,84.24781,2015-10-09,EOG,0.00298691911529425,0.00298715529656302
258169,258891,87.120003,88.0,84.93,86.029999,4804200.0,83.022224,2015-10-12,EOG,-0.0145473929826782,-0.0145475825470476
258170,258892,85.129997,86.290001,84.75,85.279999,5605900.0,82.298439,2015-10-13,EOG,-0.008717966890407491,-0.008717889209785999
258171,258893,84.989998,86.139999,84.760002,85.779999,3325400.0,82.94435899999999,2015-10-14,EOG,0.0078485085239588,0.00586303946837519
258172,258894,85.300003,87.160004,84.93,87.139999,3609900.0,84.259377,2015-10-15,EOG,0.0158542186093691,0.0158545117259794
258173,258895,87.75,88.0,86.559998,87.5,4128500.0,84.60749799999999,2015-10-16,EOG,0.00413154016080619,0.00413129451608096
258174,258896,86.269997,86.470001,84.110001,84.809998,4256500.0,82.00640899999999,2015-10-19,EOG,-0.0307430081433209,-0.03074288
258175,258897,84.57,85.650002,83.949997,84.870003,3553400.0,82.064438,2015-10-20,EOG,0.000707615425521002,0.0007075227144799361
258176,258898,84.440002,84.699997,83.410004,83.779999,3005600.0,81.010468,2015-10-21,EOG,-0.0128432001203737,-0.0128432185869016
258177,258899,84.629997,86.16999799999999,84.370003,85.800003,2901100.0,82.963699,2015-10-22,EOG,0.0241108470080682,0.0241108143245501
258178,258900,85.089996,86.089996,84.32,85.43,2674900.0,82.605919,2015-10-23,EOG,-0.0043124885258552,-0.00431238912660636
258179,258901,85.099998,85.290001,83.25,83.389999,3496500.0,80.633347,2015-10-26,EOG,-0.0238793057916347,-0.0238792110499825
258180,258902,81.839996,82.949997,80.050003,82.699997,5147700.0,79.96615600000001,2015-10-27,EOG,-0.00827438057358576,-0.00827439750898673
258181,258903,82.980003,86.16999799999999,82.349998,84.790001,3830000.0,81.987076,2015-10-28,EOG,0.025272191400572002,0.0252721169989887
258182,258904,84.32,85.900002,84.129997,85.519997,2984100.0,82.692947,2015-10-29,EOG,0.0086095398743089,0.00860945856103945
258183,258905,85.779999,86.68,84.370003,85.849998,3161600.0,83.01203199999999,2015-10-30,EOG,0.00385867249355631,0.00385875832058313
258184,258906,85.139999,86.5,84.709999,86.07,3597500.0,83.224762,2015-11-02,EOG,0.00256264055793731,0.00256263255824418
258185,258907,86.900002,89.519997,86.279999,88.449997,5513900.0,85.526085,2015-11-03,EOG,0.0276519024470145,0.0276518763796909
258186,258908,88.480003,88.959999,85.75,86.470001,3908700.0,83.611526,2015-11-04,EOG,-0.0223856733299553,-0.0223854840831708
258187,258909,86.279999,88.220001,85.449997,86.470001,4033800.0,83.611526,2015-11-05,EOG,0.0,0.0
258188,258910,85.410004,88.489998,84.230003,85.269997,5272300.0,82.45121800000001,2015-11-06,EOG,-0.0138773690124971,-0.0138776915244859
258189,258911,85.940002,87.18,84.489998,85.370003,3849900.0,82.547905,2015-11-09,EOG,0.0011726570249091,0.0011728158029604698
258190,258912,85.220001,86.879997,84.720001,86.58000200000001,3909700.0,83.717926,2015-11-10,EOG,0.0141738424494238,0.0141735850706248
258191,258913,86.349998,87.900002,83.190002,83.32,3545500.0,80.565674,2015-11-11,EOG,-0.0376532500339295,-0.0376530598832742
258192,258914,82.339996,82.75,80.93,81.690002,3436700.0,78.989563,2015-11-12,EOG,-0.0195630585800101,-0.0195631060969753
258193,258915,81.650002,82.949997,80.5,82.25,3111800.0,79.531029,2015-11-13,EOG,0.00685490562848168,0.00685515958244176
258194,258916,82.440002,84.860001,82.0,84.790001,3052700.0,81.987076,2015-11-16,EOG,0.0308816198014992,0.0308814711246201
258195,258917,84.290001,84.309998,81.93,82.980003,3290100.0,80.23691600000001,2015-11-17,EOG,-0.021346779094793,-0.0213468331012286
258196,258918,83.839996,85.260002,82.949997,85.150002,3200900.0,82.33519,2015-11-18,EOG,0.0261509801797468,0.0261508667335191
258197,258919,84.260002,84.639999,81.739998,82.650002,2797900.0,79.917824,2015-11-19,EOG,-0.0293600585606227,-0.0293599523344698
258198,258920,83.0,83.269997,81.980003,82.629997,2980700.0,79.898476,2015-11-20,EOG,-0.0002420986837679,-0.00024204476123301802
258199,258921,82.360001,83.379997,82.059998,82.57,2718700.0,79.840485,2015-11-23,EOG,-0.0007258085873878,-0.000726092244684562
258200,258922,83.300003,85.650002,83.160004,85.139999,4420900.0,82.32551600000001,2015-11-24,EOG,0.0311249487024032,0.0311250938597556
258201,258923,84.239998,84.629997,83.199997,83.529999,3037000.0,80.768723,2015-11-25,EOG,-0.0189102124789597,-0.0189100307600426
258202,258924,82.879997,83.269997,81.900002,82.019997,1446600.0,79.308647,2015-11-27,EOG,-0.0180772450741855,-0.0180773616434498
258203,258925,82.410004,84.639999,82.199997,83.43,3833500.0,80.672028,2015-11-30,EOG,0.0171908240976548,0.0171909662469263
258204,258926,83.449997,84.129997,83.019997,84.050003,2584200.0,81.271538,2015-12-01,EOG,0.00743144823382913,0.00743141555795268
258205,258927,83.33000200000001,84.059998,80.410004,80.860001,4543300.0,78.186989,2015-12-02,EOG,-0.0379536191378587,-0.0379536214888655
258206,258928,81.639999,82.480003,80.25,80.989998,4675000.0,78.312691,2015-12-03,EOG,0.00160770994775117,0.0016076799207558302
258207,258929,79.290001,80.839996,78.5,80.489998,4754200.0,77.829216,2015-12-04,EOG,-0.00617364815110233,-0.00617360183167304
258208,258930,77.879997,78.400002,74.550003,76.190002,6354500.0,73.671364,2015-12-07,EOG,-0.0534227660728331,-0.0534227370710084
258209,258931,74.720001,77.879997,73.93,77.110001,5336800.0,74.560959,2015-12-08,EOG,0.0120751802559269,0.0120750620271672
258210,258932,77.470001,80.400002,76.879997,78.379997,5377100.0,75.78897099999999,2015-12-09,EOG,0.0164699061877678,0.0164699258660366
258211,258933,77.839996,80.150002,77.400002,78.18,5033300.0,75.59558100000001,2015-12-10,EOG,-0.00255169053555304,-0.00255163316732454
258212,258934,77.32,79.43,74.760002,74.889999,4962000.0,72.414345,2015-12-11,EOG,-0.0420823010805353,-0.042082386799693006
258213,258935,74.360001,77.029999,73.720001,76.860001,5854600.0,74.319229,2015-12-14,EOG,0.0263053404681077,0.0263052747537089
258214,258936,77.970001,78.660004,76.980003,77.300003,5701000.0,74.744675,2015-12-15,EOG,0.00572457499525458,0.00572472019613945
258215,258937,77.290001,77.620003,75.720001,75.800003,4961300.0,73.29426600000001,2015-12-16,EOG,-0.0194048472349369,-0.0194049151589295
258216,258938,75.470001,75.980003,71.93,73.300003,6110000.0,70.876915,2015-12-17,EOG,-0.0329814476892366,-0.0329815290376704
258217,258939,73.190002,73.870003,71.410004,71.43,6633800.0,69.068726,2015-12-18,EOG,-0.0255116775328046,-0.0255116360636438
258218,258940,71.599998,71.849998,69.300003,70.25,5078800.0,67.927727,2015-12-21,EOG,-0.0165197632282952,-0.016519669606607997
258219,258941,70.33000200000001,71.58000200000001,69.58000200000001,69.809998,5234600.0,67.50228100000001,2015-12-22,EOG,-0.00626321560855414,-0.0062633736654805795
258220,258942,71.400002,73.760002,70.790001,73.690002,5352700.0,71.253998,2015-12-23,EOG,0.055579114430221996,0.0555794887717949
258221,258943,73.75,73.980003,72.650002,73.41999799999999,1792900.0,70.992935,2015-12-24,EOG,-0.0036638365190399,-0.0036640520107462703
258222,258944,71.760002,71.980003,70.209999,70.489998,3998000.0,68.15979,2015-12-28,EOG,-0.0399074217737301,-0.0399073832717893
258223,258945,71.879997,72.33000200000001,70.550003,71.089996,3168400.0,68.73996700000001,2015-12-29,EOG,0.008512012727738721,0.00851181752055097
258224,258946,69.800003,71.089996,69.739998,70.610001,3354700.0,68.275826,2015-12-30,EOG,-0.006752127186793629,-0.006751934547865271
258225,258947,70.110001,71.589996,70.0,70.790001,3117300.0,68.44989,2015-12-31,EOG,0.0025494235690388697,0.00254921395624974
258226,258948,70.800003,71.0,68.83000200000001,69.68,5136700.0,67.376572,2016-01-04,EOG,-0.0156803466009953,-0.0156801947212856
258227,258949,70.059998,70.540001,68.57,70.129997,3665200.0,67.811691,2016-01-05,EOG,0.00645801629682197,0.00645805109070019
258228,258950,68.5,68.5,66.699997,67.32,6626700.0,65.094574,2016-01-06,EOG,-0.0400685628087346,-0.0400684032540314
258229,258951,65.91999799999999,69.010002,65.190002,65.459999,5297900.0,63.296082,2016-01-07,EOG,-0.027628908056145998,-0.027629248366012996
258230,258952,65.860001,66.43,64.769997,65.519997,4990100.0,63.354084,2016-01-08,EOG,0.000916360036313124,0.000916559745135492
258231,258953,65.879997,66.059998,62.919998,63.669998,5356600.0,61.565247,2016-01-11,EOG,-0.028235543583898997,-0.0282356392659786
258232,258954,64.650002,65.18,61.349998,62.919998,7124500.0,60.840042000000004,2016-01-12,EOG,-0.011779454080643998,-0.0117794883549391
258233,258955,63.419998,64.660004,62.59,64.16999799999999,7745400.0,62.214836,2016-01-13,EOG,0.0225968614551582,0.0198664977707088
258234,258956,64.66999799999999,66.610001,63.610001000000004,65.260002,7134900.0,63.271626,2016-01-14,EOG,0.016986141376311003,0.0169861934544551
258235,258957,62.009997999999996,64.019997,61.009997999999996,62.970001,5870600.0,61.05139499999999,2016-01-15,EOG,-0.0350904685142752,-0.0350904218482861
258236,258958,63.150002,63.630001,59.48,60.98,5477000.0,59.122036,2016-01-19,EOG,-0.0316022099085532,-0.0316023657042662
258237,258959,59.73,60.880001,57.150002,60.240002000000004,10621600.0,58.404575,2016-01-20,EOG,-0.0121352552878929,-0.0121350934732699
258238,258960,60.240002000000004,64.25,59.41,63.75,7403900.0,61.807635999999995,2016-01-21,EOG,0.0582670278826616,0.0582668971358933
258239,258961,66.440002,67.489998,64.66999799999999,66.019997,6827100.0,64.008453,2016-01-22,EOG,0.0356075259050517,0.0356077960784313
258240,258962,64.620003,66.150002,61.509997999999996,61.59,4969200.0,59.713443999999996,2016-01-25,EOG,-0.0671006530965528,-0.0671008361299986
258241,258963,63.0,66.129997,62.290001000000004,66.029999,6789000.0,64.01815,2016-01-26,EOG,0.0720893941404552,0.0720896087027114
258242,258964,65.089996,67.93,64.489998,66.07,7071300.0,64.05695300000001,2016-01-27,EOG,0.000606124981743283,0.000605800402934786
258243,258965,69.230003,69.790001,66.650002,68.629997,6737700.0,66.538963,2016-01-28,EOG,0.0387469257240507,0.0387467383078555
258244,258966,69.16999799999999,71.18,69.019997,71.019997,6883200.0,68.856125,2016-01-29,EOG,0.0348241375508063,0.0348244223294953
258245,258967,69.300003,70.0,67.690002,69.089996,4489100.0,66.98492399999999,2016-02-01,EOG,-0.0271755199700825,-0.0271754587655081
258246,258968,67.010002,69.370003,66.0,67.160004,5463600.0,65.113754,2016-02-02,EOG,-0.0279341960588028,-0.0279344639128363
258247,258969,68.610001,70.269997,66.32,70.190002,5381200.0,68.05143000000001,2016-02-03,EOG,0.0451160595041102,0.0451161080931444
258248,258970,70.66999799999999,71.389999,68.139999,68.440002,5174300.0,66.354729,2016-02-04,EOG,-0.0249326281607894,-0.0249323258318186
258249,258971,67.68,67.68,65.620003,67.059998,5514400.0,65.016762,2016-02-05,EOG,-0.020163852978738,-0.0201637048461807
258250,258972,65.660004,68.800003,64.75,68.43,6274500.0,66.345047,2016-02-08,EOG,0.020429885450155,0.0204294965830452
258251,258973,67.209999,67.970001,64.339996,65.589996,6382800.0,63.59156,2016-02-09,EOG,-0.0415025254258994,-0.0415023235423061
258252,258974,65.449997,66.779999,63.91,65.790001,4302100.0,63.78548000000001,2016-02-10,EOG,0.00304946128071082,0.00304932172888073
258253,258975,63.619999,65.989998,63.060001,65.559998,5413000.0,63.562473,2016-02-11,EOG,-0.00349620321113842,-0.0034960175787200898
258254,258976,66.82,68.760002,65.980003,67.699997,5476800.0,65.637283,2016-02-12,EOG,0.0326420590967251,0.0326418405320879
258255,258977,68.769997,69.089996,66.25,67.889999,3747900.0,65.821495,2016-02-16,EOG,0.00280651470597904,0.00280652892791133
258256,258978,69.0,70.940002,67.599998,70.82,6288200.0,68.662224,2016-02-17,EOG,0.0431580747292355,0.0431580651518346
258257,258979,70.989998,71.230003,69.339996,69.459999,3668100.0,67.343651,2016-02-18,EOG,-0.0192037618822251,-0.0192036289183846
258258,258980,68.610001,69.730003,68.059998,69.709999,3575100.0,67.58602900000001,2016-02-19,EOG,0.00359912176427746,0.00359919383241003
258259,258981,69.709999,72.769997,69.709999,72.209999,4684600.0,70.009865,2016-02-22,EOG,0.0358629739883076,0.0358628609362051
258260,258982,71.690002,71.75,67.650002,68.019997,4418700.0,65.94753299999999,2016-02-23,EOG,-0.0580251368860659,-0.0580252327658943
258261,258983,67.230003,69.940002,66.75,69.519997,4151500.0,67.401833,2016-02-24,EOG,0.0220523791238709,0.0220523385203912
258262,258984,69.190002,70.300003,67.16999799999999,68.5,5356700.0,66.41291,2016-02-25,EOG,-0.0146720490524345,-0.0146719943040274
258263,258985,68.0,69.699997,65.739998,67.5,10600800.0,65.443382,2016-02-26,EOG,-0.0145984869508051,-0.0145985401459854
258264,258986,67.41999799999999,67.559998,64.720001,64.739998,7950300.0,62.767456,2016-02-29,EOG,-0.0408891765404178,-0.0408889185185185
258265,258987,65.099998,65.470001,62.529999,65.019997,7542900.0,63.038929,2016-03-01,EOG,0.004325059788945479,0.00432497696400924
258266,258988,64.949997,67.120003,64.139999,67.0,5243400.0,64.95859499999999,2016-03-02,EOG,0.0304520719252701,0.0304522161082228
258267,258989,66.949997,69.66999799999999,66.18,69.25,6644400.0,67.140068,2016-03-03,EOG,0.0335825151390665,0.0335820895522387
258268,258990,69.910004,71.519997,68.739998,71.410004,7930800.0,69.234245,2016-03-04,EOG,0.0311911659070705,0.0311913935018051
258269,258991,71.120003,75.529999,70.220001,75.470001,8446300.0,73.170525,2016-03-07,EOG,0.0568545233648463,0.056854737047766994
258270,258992,74.650002,74.839996,70.480003,70.559998,6598900.0,68.41014100000001,2016-03-08,EOG,-0.0650587651243448,-0.0650590027155293
258271,258993,71.589996,72.5,69.809998,72.260002,4693500.0,70.05834200000001,2016-03-09,EOG,0.0240929338239486,0.0240930278937934
258272,258994,71.160004,72.860001,70.309998,72.269997,4557300.0,70.068024,2016-03-10,EOG,0.000138199102684977,0.000138319951887178
258273,258995,73.139999,75.889999,72.989998,75.18,4282000.0,72.88938900000001,2016-03-11,EOG,0.0402660848549119,0.0402657135851272
258274,258996,73.709999,75.449997,73.290001,74.779999,3188400.0,72.501564,2016-03-14,EOG,-0.00532073331002947,-0.00532057728119184
258275,258997,73.82,74.370003,71.900002,73.610001,3910500.0,71.36721800000001,2016-03-15,EOG,-0.0156458142061598,-0.0156458680883375
258276,258998,74.370003,75.269997,72.690002,75.040001,4881800.0,72.753632,2016-03-16,EOG,0.0194264823381514,0.0194267080637589
258277,258999,75.660004,77.449997,75.18,76.5,4675100.0,74.169167,2016-03-17,EOG,0.0194565544164174,0.0194562763931732
258278,259000,77.5,77.699997,74.629997,75.629997,7455600.0,73.325653,2016-03-18,EOG,-0.0113728390666704,-0.0113725882352941
258279,259001,75.019997,76.32,74.589996,75.959999,2899600.0,73.645615,2016-03-21,EOG,0.0043635751869812705,0.00436337449543989
258280,259002,75.389999,77.25,75.379997,75.900002,2844300.0,73.58743299999999,2016-03-22,EOG,-0.0007900266702912661,-0.0007898499314091809
258281,259003,75.449997,76.540001,73.839996,74.339996,3840700.0,72.074966,2016-03-23,EOG,-0.0205533327952886,-0.0205534381935853
258282,259004,72.41999799999999,74.910004,72.32,74.300003,3621400.0,72.036186,2016-03-24,EOG,-0.000538050895507958,-0.0005379742016665691
258283,259005,74.300003,74.760002,73.519997,74.529999,2628700.0,72.259186,2016-03-28,EOG,0.00309566639188819,0.00309550458564578
258284,259006,73.16999799999999,75.639999,73.139999,75.449997,3243000.0,73.151154,2016-03-29,EOG,0.0123440084143767,0.0123439958720513
258285,259007,76.440002,76.5,73.589996,73.660004,4136200.0,71.415688,2016-03-30,EOG,-0.0237243830767181,-0.0237242289088493
258286,259008,73.480003,74.41999799999999,72.370003,72.58000200000001,5664700.0,70.36859100000001,2016-03-31,EOG,-0.0146620025560772,-0.014661986713983999
258287,259009,70.849998,72.470001,70.410004,72.040001,5143400.0,69.84503199999999,2016-04-01,EOG,-0.0074402370796367,-0.0074400797068039405
258288,259010,72.480003,72.629997,70.110001,70.309998,3452600.0,68.167755,2016-04-04,EOG,-0.0240142634625753,-0.024014477734391006
258289,259011,69.889999,71.360001,69.660004,70.540001,3467500.0,68.390762,2016-04-05,EOG,0.00327144410139368,0.00327127018265605
258290,259012,70.68,71.709999,69.760002,71.220001,4159200.0,69.050034,2016-04-06,EOG,0.00963978146639155,0.00963992047575957
258291,259013,70.790001,72.08000200000001,70.389999,71.449997,3017600.0,69.273026,2016-04-07,EOG,0.0032294263606012,0.00322937372606891
258292,259014,73.370003,73.5,72.440002,73.470001,3215900.0,71.231468,2016-04-08,EOG,0.0282713505253835,0.0282715757146919
258293,259015,73.879997,74.779999,73.699997,74.010002,3457500.0,71.75502,2016-04-11,EOG,0.007350009970312541,0.00734995226146795
258294,259016,74.459999,77.83000200000001,73.540001,77.510002,5528000.0,75.148376,2016-04-12,EOG,0.0472908515669008,0.0472909053562787
258295,259017,77.610001,78.18,76.32,77.779999,4629100.0,75.573952,2016-04-13,EOG,0.00566314300657678,0.00348338269943538
258296,259018,78.029999,78.629997,77.0,77.809998,2666700.0,75.603104,2016-04-14,EOG,0.000385741372900483,0.000385690413803985
258297,259019,77.41999799999999,77.41999799999999,75.07,75.709999,4868800.0,73.56268299999999,2016-04-15,EOG,-0.0269885876643371,-0.0269888067597688
258298,259020,74.040001,77.68,73.57,77.440002,3586400.0,75.243607,2016-04-18,EOG,0.0228502269282373,0.0228503899465118
258299,259021,78.519997,80.18,77.699997,79.129997,3829900.0,76.885666,2016-04-19,EOG,0.0218232360923367,0.0218232819777044
258300,259022,78.129997,80.059998,76.639999,79.370003,4066200.0,77.118874,2016-04-20,EOG,0.0030331791624203,0.00303305963729517
258301,259023,79.379997,80.290001,78.709999,79.160004,3336600.0,76.914833,2016-04-21,EOG,-0.00264579848507651,-0.0026458232589458
258302,259024,79.66999799999999,81.779999,79.5,80.91999799999999,3157300.0,78.62490799999999,2016-04-22,EOG,0.0222333577711857,0.0222333743186776
258303,259025,80.389999,80.519997,79.040001,79.760002,2828100.0,77.497795,2016-04-25,EOG,-0.0143353172508641,-0.0143350967458008
258304,259026,80.519997,82.860001,79.970001,82.779999,3654700.0,80.432144,2016-04-26,EOG,0.0378636450237069,0.0378635522100415
258305,259027,83.690002,85.43,83.040001,84.510002,3795100.0,82.11308299999999,2016-04-27,EOG,0.0208988461130666,0.0208988043114133
258306,259028,83.849998,84.75,81.599998,81.889999,3266000.0,79.56738299999999,2016-04-28,EOG,-0.031002367795641004,-0.0310022830197069
258307,259029,82.709999,83.239998,81.029999,82.620003,4570600.0,80.27668,2016-04-29,EOG,0.00891441911568203,0.00891444631718685
258308,259030,82.33000200000001,83.059998,80.68,82.779999,4300700.0,80.432144,2016-05-02,EOG,0.00193660226108006,0.00193652861523153
258309,259031,81.440002,82.230003,80.050003,80.629997,3808600.0,78.343132,2016-05-03,EOG,-0.0259723525460169,-0.0259724815894236
258310,259032,80.610001,82.0,78.809998,79.339996,3757600.0,77.089714,2016-05-04,EOG,-0.0159990795364168,-0.0159990208110761
258311,259033,80.440002,82.75,80.150002,81.260002,5206800.0,78.955261,2016-05-05,EOG,0.0241996876522332,0.0241997239324288
258312,259034,78.83000200000001,81.650002,78.08000200000001,78.68,5070700.0,76.448433,2016-05-06,EOG,-0.0317499805364458,-0.0317499623000255
258313,259035,78.209999,78.83000200000001,77.040001,78.639999,3002700.0,76.409561,2016-05-09,EOG,-0.000508473469953197,-0.0005084011184545161
258314,259036,78.769997,79.849998,78.709999,79.730003,4089700.0,77.46865799999999,2016-05-10,EOG,0.013860791583398997,0.0138606817632334
258315,259037,79.379997,81.209999,78.220001,80.32,3192000.0,78.041924,2016-05-11,EOG,0.0073999732898431,0.007399937009910709
258316,259038,81.389999,81.849998,79.550003,80.5,2277400.0,78.216827,2016-05-12,EOG,0.00224114156898536,0.0022410358565738697
258317,259039,80.209999,80.970001,78.599998,78.650002,3219100.0,76.419304,2016-05-13,EOG,-0.0229812825314429,-0.0229813416149068
258318,259040,79.639999,81.410004,79.639999,80.690002,2992800.0,78.401421,2016-05-16,EOG,0.0259373861871341,0.0259376980053987
258319,259041,80.800003,82.480003,80.389999,81.57,3952300.0,79.256462,2016-05-17,EOG,0.0109059375339637,0.0109059112428822
258320,259042,81.360001,82.150002,79.879997,80.410004,2478500.0,78.129372,2016-05-18,EOG,-0.0142207962803083,-0.0142208655142821
258321,259043,79.150002,80.190002,77.660004,80.08000200000001,3798500.0,77.80873100000001,2016-05-19,EOG,-0.00410397513498517,-0.00410399183663779
258322,259044,80.589996,81.309998,79.540001,80.91999799999999,3322800.0,78.62490799999999,2016-05-20,EOG,0.0104895297675529,0.0104894602774861
258323,259045,79.800003,81.870003,79.730003,81.269997,3215300.0,78.964973,2016-05-23,EOG,0.00432515609430029,0.0043252472645882705
258324,259046,81.790001,83.08000200000001,80.650002,82.489998,3312900.0,80.150368,2016-05-24,EOG,0.0150116558641766,0.0150117022890994
258325,259047,82.5,83.379997,82.290001,83.08000200000001,2895200.0,80.72364,2016-05-25,EOG,0.007152456243245229,0.007152430771061309
258326,259048,83.550003,83.940002,82.209999,82.300003,2367300.0,79.965775,2016-05-26,EOG,-0.00938838981988432,-0.009388528902538941
258327,259049,81.940002,82.260002,80.769997,81.57,2100600.0,79.256462,2016-05-27,EOG,-0.00887020728555432,-0.008870023978006509
258328,259050,82.029999,82.480003,81.08000200000001,81.360001,3009200.0,79.052429,2016-05-31,EOG,-0.00257433898575987,-0.0025744636508520102
258329,259051,80.650002,81.309998,80.0,80.75,3337100.0,78.45973199999999,2016-06-01,EOG,-0.00749751788145558,-0.0074975539884764
258330,259052,79.959999,80.58000200000001,79.199997,80.489998,2069800.0,78.20708499999999,2016-06-02,EOG,-0.0032200849220336302,-0.0032198390092879102
258331,259053,80.239998,80.800003,79.110001,79.709999,2134500.0,77.449211,2016-06-03,EOG,-0.00969060539719646,-0.00969063261748382
258332,259054,80.610001,81.41999799999999,79.970001,81.269997,2037300.0,78.964973,2016-06-06,EOG,0.0195710450814017,0.0195709198290168
258333,259055,81.989998,85.629997,81.910004,85.41999799999999,4369500.0,82.99726899999999,2016-06-07,EOG,0.0510643624230709,0.0510643675795879
258334,259056,86.599998,86.870003,85.139999,85.360001,3796800.0,82.93897199999999,2016-06-08,EOG,-0.000702396605362976,-0.000702376509070013
258335,259057,84.16999799999999,85.440002,84.0,84.58000200000001,3588100.0,82.18111400000001,2016-06-09,EOG,-0.009137537899553629,-0.0091377576249092
258336,259058,83.32,84.339996,81.33000200000001,81.559998,2983600.0,79.246758,2016-06-10,EOG,-0.0357059652416003,-0.0357058870724548
258337,259059,80.989998,83.099998,80.510002,81.389999,2235300.0,79.08157299999999,2016-06-13,EOG,-0.00208443858359475,-0.00208434286621717
258338,259060,81.220001,83.050003,81.07,82.980003,2335700.0,80.626488,2016-06-14,EOG,0.0195357140910688,0.0195356188663915
258339,259061,82.730003,83.540001,81.5,82.440002,2150800.0,80.101799,2016-06-15,EOG,-0.00650765043864987,-0.00650760400671457
258340,259062,81.25,81.349998,79.33000200000001,80.18,3139800.0,77.905907,2016-06-16,EOG,-0.0274137663250235,-0.0274139003538598
258341,259063,80.949997,81.550003,80.339996,80.889999,3280800.0,78.595749,2016-06-17,EOG,0.008854809944000671,0.00885506360688448
258342,259064,82.33000200000001,83.389999,81.809998,83.190002,3215000.0,80.830513,2016-06-20,EOG,0.028433649763932995,0.0284337128005157
258343,259065,82.989998,85.220001,82.83000200000001,84.910004,3539800.0,82.50174,2016-06-21,EOG,0.0206756945857811,0.0206755855108645
258344,259066,84.900002,85.089996,83.43,83.599998,2415600.0,81.228889,2016-06-22,EOG,-0.0154281715755329,-0.015428170277792
258345,259067,84.760002,84.970001,83.970001,84.5,2413200.0,82.103363,2016-06-23,EOG,0.0107655541121583,0.0107655744202291
258346,259068,81.58000200000001,82.879997,80.809998,81.059998,4942200.0,78.760925,2016-06-24,EOG,-0.0407101229215179,-0.0407100828402368
258347,259069,80.0,80.800003,78.110001,78.589996,4234100.0,76.36099200000001,2016-06-27,EOG,-0.030471112420277,-0.030471281284758997
258348,259070,80.650002,81.769997,79.849998,81.75,3105700.0,79.431374,2016-06-28,EOG,0.040208775705795,0.0402087308924153
258349,259071,82.800003,84.010002,82.410004,83.440002,2870300.0,81.073441,2016-06-29,EOG,0.0206727759738865,0.0206728073394495
258350,259072,83.440002,83.959999,82.639999,83.41999799999999,3364000.0,81.053993,2016-06-30,EOG,-0.00023988127011897997,-0.00023974112560542997
258351,259073,83.779999,85.730003,83.370003,84.779999,2675400.0,82.37541999999999,2016-07-01,EOG,0.0163030462916245,0.0163030572117731
258352,259074,83.120003,84.029999,81.66999799999999,82.760002,2704800.0,80.41272,2016-07-05,EOG,-0.0238262821603824,-0.0238263390401786
258353,259075,82.029999,83.110001,81.860001,82.760002,2207300.0,80.41272,2016-07-06,EOG,0.0,0.0
258354,259076,83.83000200000001,83.860001,81.120003,81.610001,2145800.0,79.295326,2016-07-07,EOG,-0.013895736893366999,-0.013895613487298
258355,259077,82.839996,83.07,81.57,82.540001,1979500.0,80.19896700000001,2016-07-08,EOG,0.0113958923631892,0.0113956621566518
258356,259078,82.940002,83.889999,82.599998,82.900002,1689200.0,80.548737,2016-07-11,EOG,0.00436127811970444,0.00436153374895154
258357,259079,84.550003,85.959999,84.139999,85.139999,2860700.0,82.72522,2016-07-12,EOG,0.0270206967987592,0.0270204697944398
258358,259080,84.589996,85.07,82.620003,83.839996,2812000.0,81.623154,2016-07-13,EOG,-0.0133220074845373,-0.0152690041727626
258359,259081,84.839996,84.93,83.879997,84.629997,2018100.0,82.392273,2016-07-14,EOG,0.00942280422047892,0.0094227223007024
258360,259082,84.510002,84.900002,83.639999,84.099998,2473800.0,81.876266,2016-07-15,EOG,-0.00626280816406177,-0.00626254305550789
258361,259083,83.91999799999999,84.309998,82.739998,83.25,1864800.0,81.048744,2016-07-18,EOG,-0.0101069826511141,-0.010106991916932
258362,259084,82.870003,83.150002,81.860001,82.040001,2173800.0,79.870743,2016-07-19,EOG,-0.0145344756977356,-0.0145345225225225
258363,259085,81.529999,82.860001,80.91999799999999,82.110001,2156700.0,79.938896,2016-07-20,EOG,0.000853291173214643,0.000853242310418612
258364,259086,82.150002,83.459999,81.199997,81.489998,1825300.0,79.335289,2016-07-21,EOG,-0.00755085484292894,-0.0075508828699197795
258365,259087,82.050003,82.199997,80.190002,80.980003,2620100.0,78.838768,2016-07-22,EOG,-0.00625851378697317,-0.0062583754143668
258366,259088,80.379997,80.559998,78.190002,78.75,4280300.0,76.667732,2016-07-25,EOG,-0.0275376702994649,-0.0275376996466645
258367,259089,78.470001,80.449997,78.040001,80.449997,2548000.0,78.322777,2016-07-26,EOG,0.0215872435094338,0.0215872634920635
258368,259090,80.760002,81.949997,79.650002,79.779999,3450200.0,77.67049399999999,2016-07-27,EOG,-0.00832813933550902,-0.00832812958339813
258369,259091,79.739998,80.709999,79.25,79.900002,2537400.0,77.787338,2016-07-28,EOG,0.00150435505148194,0.00150417399729474
258370,259092,79.0,81.889999,78.860001,81.699997,2886900.0,79.539726,2016-07-29,EOG,0.0225279337878872,0.0225280970581201
258371,259093,81.040001,81.129997,78.260002,78.699997,3591800.0,76.619049,2016-08-01,EOG,-0.0367197266935518,-0.036719707590687004
258372,259094,79.370003,80.360001,78.519997,79.889999,3039100.0,77.777596,2016-08-02,EOG,0.015120874183651002,0.0151207375522517
258373,259095,80.0,82.41999799999999,79.66999799999999,82.370003,3036500.0,80.192024,2016-08-03,EOG,0.031042718265552997,0.0310427341474868
258374,259096,82.029999,84.300003,81.599998,84.239998,4243000.0,82.012573,2016-08-04,EOG,0.0227023700012858,0.0227023786802583
258375,259097,87.230003,90.769997,86.75,90.160004,8928300.0,87.776016,2016-08-05,EOG,0.0702751150119385,0.0702754765022668
258376,259098,90.970001,92.0,90.470001,90.660004,4506100.0,88.26281,2016-08-08,EOG,0.00554586574081917,0.00554569629344748
258377,259099,91.290001,91.389999,89.900002,90.379997,3064200.0,87.990219,2016-08-09,EOG,-0.00308840155893519,-0.00308853946223075
258378,259100,90.870003,90.870003,89.199997,89.41999799999999,2664100.0,87.055595,2016-08-10,EOG,-0.0106219078736467,-0.0106218082746783
258379,259101,90.07,91.150002,89.08000200000001,90.279999,3445400.0,87.892868,2016-08-11,EOG,0.009617681666525879,0.00961754662530856
258380,259102,90.650002,91.41999799999999,90.0,91.199997,1912000.0,88.78854399999999,2016-08-12,EOG,0.010190542422623001,0.0101904963468153
258381,259103,91.510002,91.970001,90.540001,90.550003,2794100.0,88.15572399999999,2016-08-15,EOG,-0.00712727083349851,-0.0071271274274273795
258382,259104,90.190002,90.800003,88.839996,90.260002,2463400.0,87.87339,2016-08-16,EOG,-0.00320267348720327,-0.0032026614068693103
258383,259105,89.809998,90.660004,89.300003,90.220001,3160400.0,87.83445,2016-08-17,EOG,-0.000443137564170359,-0.00044317526161818894
258384,259106,90.82,92.099998,90.290001,91.730003,4122200.0,89.30452,2016-08-18,EOG,0.0167368270650068,0.0167368874225573
258385,259107,91.16999799999999,91.940002,90.660004,91.760002,2338600.0,89.33374,2016-08-19,EOG,0.00032719508486245296,0.000327035855433255
258386,259108,90.83000200000001,91.839996,90.269997,91.16999799999999,2276100.0,88.759338,2016-08-22,EOG,-0.00642984386414369,-0.00642986036552173
258387,259109,90.730003,91.849998,90.709999,91.209999,2986400.0,88.798271,2016-08-23,EOG,0.000438635538268617,0.00043875179200925096
258388,259110,90.769997,91.400002,90.559998,90.730003,2329200.0,88.33097099999999,2016-08-24,EOG,-0.00526248985185751,-0.00526253706021862
258389,259111,90.699997,90.849998,90.0,90.25,1929900.0,87.863663,2016-08-25,EOG,-0.0052904207291008,-0.00529045502180792
258390,259112,90.730003,91.510002,89.91999799999999,90.18,1641100.0,87.795509,2016-08-26,EOG,-0.000775679019892506,-0.0007756232686979559
258391,259113,89.980003,91.33000200000001,89.610001,91.139999,2226100.0,88.730118,2016-08-29,EOG,0.0106452939409465,0.0106453648259037
258392,259114,91.269997,91.690002,89.639999,90.07,1618400.0,87.688423,2016-08-30,EOG,-0.0117400384838889,-0.0117401690996289
258393,259115,89.760002,89.900002,88.019997,88.489998,2709100.0,86.1502,2016-08-31,EOG,-0.0175419165652004,-0.0175419340512933
258394,259116,88.309998,88.639999,87.440002,88.550003,2420700.0,86.208603,2016-09-01,EOG,0.0006779206548561679,0.0006780992355768231
258395,259117,89.269997,89.5,88.690002,88.910004,1938400.0,86.559097,2016-09-02,EOG,0.00406564992127301,0.0040655108729923395
258396,259118,90.25,95.199997,90.059998,94.83000200000001,7421600.0,92.322563,2016-09-06,EOG,0.066584174278066,0.0665841607655309
258397,259119,94.779999,95.160004,94.040001,94.32,4271500.0,91.826042,2016-09-07,EOG,-0.00537811109078501,-0.0053780658994396794
258398,259120,95.18,95.93,94.160004,95.43,3697300.0,92.906677,2016-09-08,EOG,0.0117682846441318,0.0117684478371503
258399,259121,94.360001,94.870003,92.620003,92.650002,3013300.0,90.200203,2016-09-09,EOG,-0.0291311032467558,-0.0291312794718642
258400,259122,92.050003,93.529999,91.349998,92.980003,2498800.0,90.521469,2016-09-12,EOG,0.00356169930127526,0.0035618024055734704
258401,259123,91.610001,92.129997,89.529999,90.400002,3985900.0,88.009697,2016-09-13,EOG,-0.0277478042253158,-0.0277479126345048
258402,259124,89.879997,90.82,88.16999799999999,88.449997,3673700.0,86.111244,2016-09-14,EOG,-0.0215709525735557,-0.0215708512926803
258403,259125,88.849998,92.389999,88.489998,90.949997,3931800.0,88.545151,2016-09-15,EOG,0.028264682832825003,0.0282645572051292
258404,259126,89.540001,91.459999,89.269997,90.970001,4559700.0,88.564613,2016-09-16,EOG,0.000219797468073546,0.00021994503199374
258405,259127,91.660004,91.870003,90.019997,90.050003,3740000.0,87.668953,2016-09-19,EOG,-0.0101130685232034,-0.0101132020433856
258406,259128,90.160004,91.849998,90.040001,90.400002,3049400.0,88.009697,2016-09-20,EOG,0.00388671232334659,0.0038867183602424604
258407,259129,91.559998,93.790001,91.099998,93.519997,3188900.0,91.047188,2016-09-21,EOG,0.0345131400690994,0.0345132182629819
258408,259130,94.610001,95.0,92.43,92.610001,3047100.0,90.161263,2016-09-22,EOG,-0.0097303938700446,-0.00973049646269775
258409,259131,92.25,92.360001,89.400002,89.75,3679800.0,87.37688399999999,2016-09-23,EOG,-0.0308822093585801,-0.0308822046120051
258410,259132,90.220001,90.629997,89.010002,89.260002,2131500.0,86.899826,2016-09-26,EOG,-0.00545977354834493,-0.00545958774373256
258411,259133,88.150002,89.0,87.18,88.559998,2939000.0,86.218338,2016-09-27,EOG,-0.007842225138632641,-0.00784230320765633
258412,259134,89.459999,94.58000200000001,88.57,93.959999,4533800.0,91.475571,2016-09-28,EOG,0.0609758100417106,0.0609756224249238
258413,259135,94.279999,95.940002,93.139999,95.050003,4486500.0,92.536743,2016-09-29,EOG,0.0116006053681807,0.0116007238356826
258414,259136,95.550003,97.199997,94.690002,96.709999,4006500.0,94.15284,2016-09-30,EOG,0.0174643816889037,0.0174644497381025
258415,259137,96.269997,96.709999,95.059998,96.110001,2318600.0,93.568703,2016-10-03,EOG,-0.00620413574354206,-0.00620409478031325
258416,259138,96.32,96.370003,94.510002,95.139999,1724700.0,92.624359,2016-10-04,EOG,-0.0100925199315844,-0.0100926229310933
258417,259139,96.370003,98.32,96.089996,97.379997,3284500.0,94.805122,2016-10-05,EOG,0.0235441629345041,0.0235442298039124
258418,259140,97.550003,98.059998,96.389999,97.139999,1789700.0,94.571472,2016-10-06,EOG,-0.00246452928988372,-0.00246455131848078
258419,259141,96.879997,97.33000200000001,96.050003,96.440002,1742900.0,93.889977,2016-10-07,EOG,-0.00720613717422103,-0.00720606348781205
258420,259142,97.279999,98.099998,97.129997,97.290001,1963600.0,94.71751400000001,2016-10-10,EOG,0.008813901402915379,0.0088137596679021
258421,259143,96.75,97.07,95.720001,96.050003,2099900.0,93.5103,2016-10-11,EOG,-0.0127454147498001,-0.0127453796613693
258422,259144,95.879997,96.760002,95.150002,96.300003,2415800.0,93.753685,2016-10-12,EOG,0.00260276140703231,0.00260281095462322
258423,259145,95.43,95.93,93.989998,95.5,2252400.0,93.13732900000001,2016-10-13,EOG,-0.00657420558989241,-0.00830740368720451
258424,259146,96.269997,96.269997,93.910004,94.480003,2526800.0,92.142563,2016-10-14,EOG,-0.0106806369763943,-0.0106805968586388
258425,259147,94.459999,94.949997,93.050003,93.779999,2100100.0,91.459885,2016-10-17,EOG,-0.00740893217828109,-0.007409017546284309
258426,259148,94.959999,95.160004,92.940002,93.129997,2735400.0,90.825935,2016-10-18,EOG,-0.00693145415610352,-0.00693113677683022
258427,259149,94.260002,96.18,94.0,95.059998,3163600.0,92.708214,2016-10-19,EOG,0.0207240255770558,0.02072373093709
258428,259150,93.970001,95.5,93.769997,94.910004,2472200.0,92.561913,2016-10-20,EOG,-0.00157808023353778,-0.0015778876831029599
258429,259151,94.190002,95.019997,93.639999,93.879997,2729600.0,91.557396,2016-10-21,EOG,-0.0108523794230572,-0.0108524597680978
258430,259152,93.980003,94.66999799999999,92.279999,93.620003,2569000.0,91.303818,2016-10-24,EOG,-0.00276960694688155,-0.0027694291468715
258431,259153,93.480003,94.190002,92.57,92.66999799999999,1429100.0,90.377342,2016-10-25,EOG,-0.0101471769778566,-0.010147457482991
258432,259154,91.849998,93.099998,90.379997,92.139999,3286400.0,89.860458,2016-10-26,EOG,-0.0057191768264218705,-0.00571920806559212
258433,259155,92.510002,92.889999,91.300003,91.739998,3581300.0,89.470329,2016-10-27,EOG,-0.00434149801462158,-0.00434123078295234
258434,259156,91.650002,94.089996,90.68,90.800003,3269800.0,88.553604,2016-10-28,EOG,-0.0102461342240062,-0.0102462940973684
258435,259157,90.660004,91.230003,90.18,90.41999799999999,2406900.0,88.182999,2016-10-31,EOG,-0.00418509222956087,-0.0041850769542375295
258436,259158,91.32,92.220001,89.900002,91.160004,2496000.0,88.904701,2016-11-01,EOG,0.00818413989299693,0.00818409661986497
258437,259159,89.910004,91.790001,88.940002,90.940002,3302600.0,88.690147,2016-11-02,EOG,-0.00241330320654254,-0.00241336101740397
258438,259160,90.879997,92.879997,90.589996,92.08000200000001,4157900.0,89.80193299999999,2016-11-03,EOG,0.0125356202194593,0.0125357375734387
258439,259161,94.870003,96.0,91.510002,91.800003,6775100.0,89.52887,2016-11-04,EOG,-0.0030407251924077197,-0.00304082313117227
258440,259162,93.599998,93.599998,92.209999,93.43,2988200.0,91.118546,2016-11-07,EOG,0.0177560154618281,0.0177559580254045
258441,259163,92.900002,94.099998,92.57,93.360001,2382200.0,91.050278,2016-11-08,EOG,-0.000749221788503784,-0.0007492133147811719
258442,259164,93.349998,94.66999799999999,92.519997,93.43,4685900.0,91.118546,2016-11-09,EOG,0.000749783542670635,0.0007497750562364121
258443,259165,92.639999,93.699997,92.059998,92.629997,2983000.0,90.33830999999999,2016-11-10,EOG,-0.00856286710281773,-0.00856259231510226
258444,259166,92.07,92.540001,90.120003,91.410004,2340300.0,89.148514,2016-11-11,EOG,-0.0131704478421171,-0.0131706039027509
258445,259167,91.190002,92.800003,90.089996,92.68,2467000.0,90.3871,2016-11-14,EOG,0.0138935125716173,0.0138934027395952
258446,259168,94.029999,94.989998,93.050003,94.57,8288400.0,92.230347,2016-11-15,EOG,0.0203928104784863,0.0203927492447129
258447,259169,94.510002,96.019997,94.050003,95.220001,4103400.0,92.86425799999999,2016-11-16,EOG,0.006873128212344429,0.00687322618166442
258448,259170,96.099998,96.58000200000001,92.040001,92.339996,5877700.0,90.055489,2016-11-17,EOG,-0.0302459639531069,-0.0302457988842071
258449,259171,92.75,94.279999,92.379997,93.150002,2755400.0,90.84545899999999,2016-11-18,EOG,0.0087720360943242,0.00877199518180616
258450,259172,95.0,97.0,94.860001,95.66999799999999,4642400.0,93.303108,2016-11-21,EOG,0.0270530748267779,0.0270530965742761
258451,259173,95.790001,96.199997,93.41999799999999,95.269997,3867800.0,92.91301700000001,2016-11-22,EOG,-0.00418090038329699,-0.00418104952819176
258452,259174,94.790001,97.699997,94.639999,97.0,2675500.0,94.600212,2016-11-23,EOG,0.0181588657270704,0.0181589488241507
258453,259175,96.389999,96.809998,95.190002,95.980003,1518300.0,93.605453,2016-11-25,EOG,-0.0105153992678156,-0.0105154329896907
258454,259176,96.639999,96.839996,93.269997,93.470001,3031200.0,91.157539,2016-11-28,EOG,-0.0261514038076393,-0.0261513015372588
258455,259177,91.599998,93.379997,90.0,92.440002,4010400.0,90.153046,2016-11-29,EOG,-0.0110193080135698,-0.0110195676578626
258456,259178,97.309998,103.07,97.089996,102.519997,10121000.0,99.98365,2016-11-30,EOG,0.10904350364379199,0.109043647575862
258457,259179,105.709999,107.470001,103.849998,104.75,6505300.0,102.158463,2016-12-01,EOG,0.0217516864007266,0.0217518831960168
258458,259180,104.809998,105.470001,103.389999,103.739998,4078300.0,101.173462,2016-12-02,EOG,-0.00964189330060694,-0.00964202386634849
258459,259181,104.879997,106.809998,104.32,104.459999,5883900.0,101.875648,2016-12-05,EOG,0.00694041684567437,0.00694043776634734
258460,259182,103.519997,105.300003,102.559998,103.970001,3539700.0,101.397766,2016-12-06,EOG,-0.00469083642049561,-0.0046907716321154
258461,259183,103.91999799999999,104.970001,102.690002,103.529999,3777700.0,100.968666,2016-12-07,EOG,-0.00423184865828308,-0.00423200919272848
258462,259184,104.029999,105.25,102.360001,104.93,6189100.0,102.33403,2016-12-08,EOG,0.0135226506805586,0.0135226602291381
258463,259185,105.589996,106.989998,105.349998,106.449997,4049600.0,103.816406,2016-12-09,EOG,0.0144856603419214,0.0144858191175068
258464,259186,109.099998,109.370003,105.190002,105.83000200000001,5758500.0,103.211761,2016-12-12,EOG,-0.00582417580512284,-0.0058242838654096706
258465,259187,107.0,109.129997,105.800003,108.010002,3912600.0,105.33783000000001,2016-12-13,EOG,0.0205990962599698,0.0205990735972963
258466,259188,106.690002,107.470001,104.08000200000001,104.209999,4010300.0,101.631844,2016-12-14,EOG,-0.0351819094811426,-0.0351819547230451
258467,259189,103.029999,105.050003,102.540001,103.91999799999999,4646800.0,101.349007,2016-12-15,EOG,-0.0027829564914713103,-0.00278285196029981
258468,259190,104.089996,104.589996,102.790001,104.0,8906300.0,101.427032,2016-12-16,EOG,0.0007698644743505679,0.000769842201113091
258469,259191,104.269997,104.400002,103.129997,103.480003,2238900.0,100.919891,2016-12-19,EOG,-0.00500005757833855,-0.00499997115384621
258470,259192,104.199997,104.339996,102.709999,103.160004,2383100.0,100.607811,2016-12-20,EOG,-0.0030923537164740896,-0.00309237524857819
258471,259193,103.75,103.860001,102.33000200000001,102.550003,2364900.0,100.012909,2016-12-21,EOG,-0.00591307965143983,-0.0059131540941002
258472,259194,102.66999799999999,103.33000200000001,101.870003,103.129997,2722400.0,100.578568,2016-12-22,EOG,0.0056558598850475796,0.00565571899593209
258473,259195,102.699997,103.040001,101.620003,102.029999,1706200.0,99.505775,2016-12-23,EOG,-0.0106662186719541,-0.0106661304372965
258474,259196,102.82,103.120003,102.32,102.540001,1410800.0,100.003151,2016-12-27,EOG,0.0049984636570088396,0.00499854949523226
258475,259197,102.489998,102.83000200000001,101.349998,101.650002,1896100.0,99.135178,2016-12-28,EOG,-0.008679456510325421,-0.00867952985489051
258476,259198,101.599998,101.949997,100.540001,101.279999,1517700.0,98.774315,2016-12-29,EOG,-0.00364011047622259,-0.00363997041534736
258477,259199,101.150002,102.18,100.730003,101.099998,2178200.0,98.59878499999999,2016-12-30,EOG,-0.0017770814204076698,-0.00177726107599985
258478,259200,102.629997,104.629997,101.83000200000001,103.540001,4151200.0,100.978401,2017-01-03,EOG,0.0241343339068529,0.0241345504279833
258479,259201,104.25,104.470001,102.970001,103.620003,2417900.0,101.056412,2017-01-04,EOG,0.000772551349867312,0.000772667560626994
258480,259202,103.629997,104.849998,103.41999799999999,104.18,3084800.0,101.602577,2017-01-05,EOG,0.0054045556258222,0.0054043329838546796
258481,259203,104.610001,105.709999,103.709999,105.209999,2418300.0,102.607101,2017-01-06,EOG,0.00988679647367618,0.009886724899212721
258482,259204,104.32,104.58000200000001,102.82,103.019997,3382600.0,100.47126800000001,2017-01-09,EOG,-0.020815645108227,-0.0208155310409232
258483,259205,103.230003,104.400002,102.870003,103.400002,2913800.0,100.84187299999999,2017-01-10,EOG,0.00368866649518163,0.0036886527962138897
258484,259206,103.559998,105.040001,102.730003,104.91999799999999,3542900.0,102.324272,2017-01-11,EOG,0.0147002327098782,0.0147001544545424
258485,259207,105.510002,106.510002,104.839996,105.370003,4671700.0,102.927948,2017-01-12,EOG,0.00589963640298374,0.00428902981870039
258486,259208,104.839996,106.08000200000001,104.269997,105.389999,2580500.0,102.947479,2017-01-13,EOG,0.00018975409866328602,0.000189769378672322
258487,259209,105.949997,106.760002,105.449997,105.480003,3881100.0,103.035393,2017-01-17,EOG,0.0008539694303733031,0.000854008927355654
258488,259210,105.339996,105.709999,104.730003,105.400002,2527500.0,102.95725300000001,2017-01-18,EOG,-0.0007583801810704389,-0.0007584470774048
258489,259211,105.5,106.209999,104.459999,105.190002,2425800.0,102.75212900000001,2017-01-19,EOG,-0.00199232199794608,-0.00199240982936599
258490,259212,106.230003,106.790001,105.300003,105.470001,2488100.0,103.025635,2017-01-20,EOG,0.00266180372768732,0.0026618404285228
258491,259213,104.720001,105.099998,103.339996,103.459999,3045500.0,101.06221,2017-01-23,EOG,-0.0190576355098419,-0.0190575706925422
258492,259214,104.489998,104.620003,102.910004,103.68,2680500.0,101.27711500000001,2017-01-24,EOG,0.0021264625026506897,0.00212643535788182
258493,259215,103.629997,104.389999,103.239998,103.900002,2798100.0,101.492035,2017-01-25,EOG,0.00212209836348531,0.00212193287037032
258494,259216,104.099998,105.260002,103.900002,104.389999,2772600.0,101.97065699999999,2017-01-26,EOG,0.00471585775179295,0.00471604418255933
258495,259217,104.160004,104.160004,102.779999,102.900002,2343600.0,100.51519,2017-01-27,EOG,-0.0142733904323084,-0.014273369233388
258496,259218,102.190002,102.760002,99.57,101.199997,2975600.0,98.854584,2017-01-30,EOG,-0.0165209457396439,-0.0165209423416727
258497,259219,101.349998,101.620003,100.099998,101.58000200000001,2447500.0,99.22577700000001,2017-01-31,EOG,0.00375493967988372,0.00375499022989101
258498,259220,102.190002,102.629997,100.050003,101.0,3028500.0,98.659225,2017-02-01,EOG,-0.00570972601202191,-0.00570980496732021
258499,259221,101.139999,101.480003,98.940002,99.709999,5064400.0,97.399117,2017-02-02,EOG,-0.0127723281831983,-0.0127722871287129
258500,259222,99.68,102.18,99.209999,100.940002,3520900.0,98.600616,2017-02-03,EOG,0.0123358305188741,0.0123358039548271
258501,259223,101.0,101.050003,99.43,99.699997,1802400.0,97.389351,2017-02-06,EOG,-0.0122845581410972,-0.0122845747516431
258502,259224,99.25,99.5,95.269997,97.190002,5158000.0,94.937531,2017-02-07,EOG,-0.0251754424362064,-0.0251754771868247
258503,259225,96.599998,98.489998,95.279999,98.139999,3445400.0,95.86551700000001,2017-02-08,EOG,0.00977470121905721,0.009774637107220041
258504,259226,98.139999,100.290001,98.139999,99.809998,2927000.0,97.496811,2017-02-09,EOG,0.017016483622573,0.0170164970146371
258505,259227,101.230003,102.029999,100.57,101.440002,3089000.0,99.089027,2017-02-10,EOG,0.0163309546606607,0.0163310693584025
258506,259228,100.910004,101.379997,100.139999,100.349998,1944900.0,98.024292,2017-02-13,EOG,-0.0107452362005734,-0.0107453073591226
258507,259229,100.33000200000001,101.480003,99.019997,101.230003,3862500.0,98.883904,2017-02-14,EOG,0.008769377288641909,0.00876935742440166
258508,259230,100.910004,101.470001,100.349998,100.75,2094000.0,98.415024,2017-02-15,EOG,-0.00474172217148705,-0.00474170686332975
258509,259231,101.059998,101.480003,99.839996,100.16999799999999,3154100.0,97.848457,2017-02-16,EOG,-0.00575691573270365,-0.00575684367245655
258510,259232,99.910004,100.019997,98.43,99.029999,3023200.0,96.734879,2017-02-17,EOG,-0.0113806393492745,-0.0113806431342847
258511,259233,100.410004,100.849998,99.43,99.470001,2737200.0,97.16468,2017-02-21,EOG,0.00444308200354504,0.004443118291862279
258512,259234,98.760002,99.199997,97.459999,97.529999,2596500.0,95.269653,2017-02-22,EOG,-0.0195032495347075,-0.0195033877600945
258513,259235,99.190002,99.190002,96.550003,97.57,3211800.0,95.308716,2017-02-23,EOG,0.000410025635340538,0.000410140473804166
258514,259236,96.519997,97.5,95.650002,96.300003,3590300.0,94.068161,2017-02-24,EOG,-0.0130161757713744,-0.0130162652454647
258515,259237,96.779999,98.230003,96.300003,97.910004,5156900.0,95.640854,2017-02-27,EOG,0.0167186536154353,0.0167185976100126
258516,259238,99.5,99.550003,95.290001,96.989998,6369300.0,94.74215699999999,2017-02-28,EOG,-0.00939658067043192,-0.00939644533157202
258517,259239,98.25,100.41999799999999,98.010002,100.050003,3775900.0,97.731247,2017-03-01,EOG,0.0315497355628074,0.0315496964955089
258518,259240,99.18,99.709999,98.239998,98.470001,3048900.0,96.187881,2017-03-02,EOG,-0.0157919401151199,-0.0157921234645041
258519,259241,98.5,99.309998,98.120003,98.57,2075400.0,96.285545,2017-03-03,EOG,0.0010153462056201599,0.0010155275615362199
258520,259242,98.620003,100.379997,97.800003,100.07,3106100.0,97.750778,2017-03-06,EOG,0.0152175801674073,0.0152176118494471
258521,259243,100.400002,100.540001,99.400002,99.529999,3381800.0,97.22328900000001,2017-03-07,EOG,-0.005396263956078171,-0.00539623263715394
258522,259244,98.809998,99.360001,94.489998,94.83000200000001,4829600.0,92.632225,2017-03-08,EOG,-0.0472218544262578,-0.0472219134655071
258523,259245,93.769997,96.019997,93.059998,95.699997,4991400.0,93.482056,2017-03-09,EOG,0.00917424794665123,0.00917425900718638
258524,259246,96.5,96.5,94.010002,94.790001,3796500.0,92.593147,2017-03-10,EOG,-0.00950887301836834,-0.00950884042347455
258525,259247,94.489998,95.349998,93.519997,94.949997,4695400.0,92.749443,2017-03-13,EOG,0.00168798669301085,0.00168789954965809
258526,259248,93.93,94.989998,92.910004,94.589996,5091800.0,92.39778100000001,2017-03-14,EOG,-0.0037915268127271,-0.0037914798459656204
258527,259249,95.540001,97.389999,94.68,97.059998,4184400.0,94.810532,2017-03-15,EOG,0.0261126509087919,0.0261127191505537
258528,259250,97.160004,97.25,95.739998,95.83000200000001,3182400.0,93.609039,2017-03-16,EOG,-0.0126725689082727,-0.0126725327152799
258529,259251,96.540001,96.970001,95.650002,96.43,6978600.0,94.195145,2017-03-17,EOG,0.006261211590901979,0.00626106634120704
258530,259252,95.75,96.550003,95.199997,96.220001,2208400.0,93.99000500000001,2017-03-20,EOG,-0.0021778192496014802,-0.00217773514466468
258531,259253,96.489998,96.589996,94.260002,94.529999,2840700.0,92.33917199999999,2017-03-21,EOG,-0.0175639207594466,-0.0175639366289343
258532,259254,94.339996,95.33000200000001,93.93,94.650002,2040700.0,92.456398,2017-03-22,EOG,0.00126951539049958,0.0012694700229500802
258533,259255,94.480003,95.440002,93.91999799999999,94.809998,2350500.0,92.612686,2017-03-23,EOG,0.00169039680736871,0.0016903961607945802
258534,259256,94.940002,95.25,94.360001,94.860001,2858400.0,92.66153,2017-03-24,EOG,0.000527400749396278,0.000527402183892134
258535,259257,93.349998,93.989998,93.029999,93.379997,2756900.0,91.21582,2017-03-27,EOG,-0.0156020518979129,-0.0156019817035422
258536,259258,93.5,95.639999,93.449997,95.290001,3341000.0,93.081551,2017-03-28,EOG,0.0204540286980921,0.0204541021777929
258537,259259,95.18,97.559998,94.57,97.0,3480900.0,94.75194499999999,2017-03-29,EOG,0.0179454895417461,0.0179452091725762
258538,259260,98.190002,100.160004,97.16999799999999,97.16999799999999,7514700.0,94.91798399999999,2017-03-30,EOG,0.00175235452950329,0.00175255670103103
258539,259261,97.18,98.5,96.660004,97.550003,4001000.0,95.289192,2017-03-31,EOG,0.00391082895313066,0.0039107235548157
258540,259262,97.5,97.809998,95.980003,96.959999,2282000.0,94.712845,2017-04-03,EOG,-0.00604839843746385,-0.00604822123890669
258541,259263,97.370003,98.309998,96.010002,98.25,2232100.0,95.972954,2017-04-04,EOG,0.0133045206275875,0.013304465896292
258542,259264,99.400002,100.529999,97.220001,97.58000200000001,3829100.0,95.318481,2017-04-05,EOG,-0.00681934829264497,-0.00681931806615788
258543,259265,97.970001,98.809998,97.559998,98.050003,1977900.0,95.777596,2017-04-06,EOG,0.0048166420109023705,0.00481657091993104
258544,259266,98.230003,98.480003,97.040001,97.360001,2866600.0,95.103584,2017-04-07,EOG,-0.007037261615962959,-0.0070372460875907095
258545,259267,98.16999799999999,99.43,98.059998,98.57,2902600.0,96.285545,2017-04-10,EOG,0.0124281436123375,0.0124280914910837
258546,259268,98.089996,98.610001,96.910004,97.879997,1907900.0,95.774773,2017-04-11,EOG,-0.00530476303582228,-0.00700013188596926
258547,259269,97.82,98.879997,97.18,97.489998,2295100.0,95.393158,2017-04-12,EOG,-0.00398450435377173,-0.00398446068607872
258548,259270,97.25,97.720001,95.33000200000001,95.639999,3235100.0,93.582954,2017-04-13,EOG,-0.0189762456548508,-0.0189762953939131
258549,259271,95.660004,96.129997,95.199997,95.739998,2288800.0,93.680801,2017-04-17,EOG,0.0010455643449767099,0.00104557717529885
258550,259272,95.110001,95.970001,94.300003,94.83000200000001,2005700.0,92.790382,2017-04-18,EOG,-0.00950481838856188,-0.00950486754762625
258551,259273,94.93,95.41999799999999,92.93,93.290001,3109100.0,91.283501,2017-04-19,EOG,-0.0162396249214708,-0.0162395968313909
258552,259274,93.769997,94.099998,93.190002,93.300003,2737300.0,91.293274,2017-04-20,EOG,0.000107062063712915,0.00010721406252311999
258553,259275,93.0,94.25,92.889999,93.58000200000001,2409300.0,91.567261,2017-04-21,EOG,0.0030011739966737698,0.00300106099675035
258554,259276,94.459999,94.459999,93.32,93.739998,2182200.0,91.723816,2017-04-24,EOG,0.00170972679853332,0.00170972426352378
258555,259277,93.800003,95.43,93.470001,95.269997,2273900.0,93.220901,2017-04-25,EOG,0.0163216606688059,0.0163217306661347
258556,259278,94.41999799999999,96.489998,94.209999,94.309998,2132000.0,92.281548,2017-04-26,EOG,-0.010076635067065002,-0.0100766141516726
258557,259279,93.57,93.699997,91.160004,93.0,3876300.0,90.999741,2017-04-27,EOG,-0.0138901766147226,-0.0138903406614428
258558,259280,93.970001,93.970001,92.440002,92.5,1625300.0,90.510483,2017-04-28,EOG,-0.005376476840741829,-0.0053763440860215
258559,259281,92.529999,92.709999,91.75,92.029999,2680100.0,90.050598,2017-05-01,EOG,-0.00508101365451774,-0.00508109189189188
258560,259282,92.239998,92.440002,91.050003,91.870003,3350700.0,89.894051,2017-05-02,EOG,-0.0017384337636490198,-0.00173852006670139
258561,259283,91.529999,92.75,91.089996,91.760002,3512200.0,89.786407,2017-05-03,EOG,-0.00119745410071692,-0.00119735491899353
258562,259284,91.040001,91.239998,88.199997,88.599998,5457900.0,86.69438199999999,2017-05-04,EOG,-0.0344375624697845,-0.0344377063112967
258563,259285,89.029999,91.059998,88.870003,90.879997,4696400.0,88.92532299999999,2017-05-05,EOG,0.0257333975804799,0.0257336236057253
258564,259286,90.389999,92.139999,90.16999799999999,91.690002,3718300.0,89.71791800000001,2017-05-08,EOG,0.008913040439560541,0.00891290742450179
258565,259287,92.360001,92.440002,90.599998,91.639999,3591100.0,89.668976,2017-05-09,EOG,-0.0005455097609375901,-0.000545348444860982
258566,259288,93.010002,95.769997,92.57,94.540001,5239200.0,92.506615,2017-05-10,EOG,0.0316457165742585,0.0316455917901091
258567,259289,94.82,94.91999799999999,93.980003,94.279999,2580800.0,92.252205,2017-05-11,EOG,-0.00275018170322194,-0.00275017978897629
258568,259290,94.120003,95.010002,93.800003,94.699997,3415700.0,92.663162,2017-05-12,EOG,0.00445471194970359,0.0044547942772039705
258569,259291,96.32,96.650002,94.120003,94.730003,6294000.0,92.69252,2017-05-15,EOG,0.00031682493200491097,0.000316853230734493
258570,259292,94.730003,95.059998,93.519997,93.83000200000001,2682700.0,91.811874,2017-05-16,EOG,-0.00950072346722264,-0.009500696416108071
258571,259293,93.83000200000001,94.300003,92.83000200000001,92.949997,2406900.0,90.950806,2017-05-17,EOG,-0.00937861261823281,-0.00937871662839773
258572,259294,92.230003,93.019997,91.66999799999999,91.690002,3795800.0,89.71791800000001,2017-05-18,EOG,-0.013555547819994,-0.0135556217392884
258573,259295,92.379997,94.389999,92.07,93.809998,3711900.0,91.79231999999999,2017-05-19,EOG,0.023121379165308,0.0231213431536406
258574,259296,94.129997,94.760002,92.790001,93.110001,2004600.0,91.107384,2017-05-22,EOG,-0.00746180072581248,-0.007461859235941999
258575,259297,93.120003,93.300003,91.970001,92.529999,2255400.0,90.539833,2017-05-23,EOG,-0.006229473123715129,-0.00622921269220045
258576,259298,92.370003,93.389999,92.309998,92.66999799999999,2886800.0,90.676826,2017-05-24,EOG,0.00151306883899371,0.0015130120124609
258577,259299,92.279999,93.620003,90.440002,91.019997,2768700.0,89.062309,2017-05-25,EOG,-0.0178051776977726,-0.0178051260991718
258578,259300,91.290001,91.410004,90.120003,91.220001,2001500.0,89.258011,2017-05-26,EOG,0.00219736050184816,0.00219736328929998
258579,259301,90.470001,90.790001,89.43,89.620003,3163100.0,87.692429,2017-05-30,EOG,-0.0175399606428603,-0.0175399910377111
258580,259302,88.989998,90.610001,88.360001,90.309998,3938800.0,88.367592,2017-05-31,EOG,0.00769921654239947,0.00769911824260916
258581,259303,90.639999,91.379997,89.730003,90.400002,2829600.0,88.45565,2017-06-01,EOG,0.000996496543665071,0.000996611692982263
258582,259304,90.040001,90.58000200000001,88.940002,89.68,2680200.0,87.751137,2017-06-02,EOG,-0.00796459016467577,-0.007964623717596759
258583,259305,89.120003,89.629997,88.519997,89.199997,2373000.0,87.281448,2017-06-05,EOG,-0.00535251184266705,-0.00535239741302418
258584,259306,89.099998,91.059998,88.769997,90.83000200000001,3219500.0,88.876411,2017-06-06,EOG,0.0182737916996978,0.0182735992692915
258585,259307,90.220001,90.940002,87.410004,88.150002,4531400.0,86.254051,2017-06-07,EOG,-0.0295056918983824,-0.0295056692831516
258586,259308,88.150002,88.800003,87.620003,88.110001,3498800.0,86.214905,2017-06-08,EOG,-0.00045384535040560197,-0.000453783313584033
258587,259309,88.33000200000001,90.809998,88.040001,90.08000200000001,4507800.0,88.14253199999999,2017-06-09,EOG,0.0223583961497145,0.0223584267125363
258588,259310,91.260002,91.980003,89.510002,89.879997,3812500.0,87.946838,2017-06-12,EOG,-0.00222019943788321,-0.00222030412477114
258589,259311,90.050003,90.699997,89.510002,90.559998,2573100.0,88.612206,2017-06-13,EOG,0.0075655704642843,0.00756565445813262
258590,259312,90.029999,90.050003,87.839996,88.93,4054900.0,87.01726500000001,2017-06-14,EOG,-0.0179991117702227,-0.0179990949204746
258591,259313,88.860001,89.150002,86.57,87.040001,4362000.0,85.16793100000001,2017-06-15,EOG,-0.0212524951226633,-0.0212526593950298
258592,259314,87.57,88.589996,87.07,88.519997,4767000.0,86.61608100000001,2017-06-16,EOG,0.0170034657763378,0.0170036303193517
258593,259315,88.370003,89.010002,87.959999,88.07,2495400.0,86.175781,2017-06-19,EOG,-0.00508335166999752,-0.00508356320888725
258594,259316,86.790001,88.290001,85.879997,87.849998,3772100.0,85.960503,2017-06-20,EOG,-0.00249812647476899,-0.00249803565345741
258595,259317,88.099998,89.16999799999999,86.639999,87.120003,4613500.0,85.246193,2017-06-21,EOG,-0.00830974662863471,-0.00830956194216426
258596,259318,87.339996,89.029999,86.629997,87.690002,3356600.0,85.803947,2017-06-22,EOG,0.00654286109879409,0.00654268802079838
258597,259319,87.610001,88.230003,87.209999,87.790001,3733900.0,85.901794,2017-06-23,EOG,0.0011403554663982401,0.0011403694573983698
258598,259320,88.040001,88.190002,86.82,87.389999,2547700.0,85.51039899999999,2017-06-26,EOG,-0.00455630763660175,-0.00455635032969193
258599,259321,88.190002,88.83000200000001,87.68,88.0,3909200.0,86.10726899999999,2017-06-27,EOG,0.00698008671436545,0.0069802152074631705
258600,259322,88.18,89.540001,87.489998,89.019997,4508200.0,87.105339,2017-06-28,EOG,0.0115910074909007,0.011590875
258601,259323,89.470001,90.910004,89.300003,90.0,4079000.0,88.064255,2017-06-29,EOG,0.0110086937380498,0.0110087961472296
258602,259324,90.339996,91.220001,89.25,90.519997,4164100.0,88.573074,2017-06-30,EOG,0.0057778153008845,0.00577774444444445
258603,259325,91.0,93.160004,90.519997,92.370003,2400000.0,90.383278,2017-07-03,EOG,0.020437407422486002,0.020437539342825998
258604,259326,91.82,92.190002,89.959999,90.300003,2720200.0,88.357811,2017-07-05,EOG,-0.0224097537157261,-0.0224098726076689
258605,259327,90.529999,90.839996,88.410004,88.629997,3290600.0,86.723732,2017-07-06,EOG,-0.018493882787567,-0.0184939750223486
258606,259328,88.07,88.599998,87.040001,88.440002,3810300.0,86.537811,2017-07-07,EOG,-0.00214383071060631,-0.0021436873116446
258607,259329,88.129997,89.779999,88.0,89.620003,2064600.0,87.692429,2017-07-10,EOG,0.0133423527433574,0.0133423900193941
