,Unnamed: 0,price.open,price.high,price.low,price.close,volume,price.adjusted,ref.date,ticker,ret.adjusted.prices,ret.closing.prices
553074,559028,91.654999,91.959999,91.224998,91.660004,1333000.0,82.037689,2013-11-21,PPG,,
553075,559029,91.79499799999999,92.114998,91.275002,91.889999,1349200.0,82.243523,2013-11-22,PPG,0.00250901753217359,0.0025092187427791
553076,559030,91.910004,92.769997,91.910004,92.095001,974400.0,82.427032,2013-11-25,PPG,0.00223128817086304,0.00223095007325003
553077,559031,92.089996,92.995003,91.879997,92.565002,966400.0,82.847672,2013-11-26,PPG,0.00510318022854461,0.00510343661324253
553078,559032,92.599998,92.775002,92.029999,92.269997,909400.0,82.583649,2013-11-27,PPG,-0.00318684875056008,-0.00318700365825086
553079,559033,92.5,92.785004,91.875,92.029999,394400.0,82.368843,2013-11-29,PPG,-0.00260107179327951,-0.00260104050940846
553080,559034,92.16999799999999,92.764999,91.675003,91.83000200000001,1018400.0,82.189835,2013-12-02,PPG,-0.00217324893103088,-0.00217317181542087
553081,559035,91.160004,91.614998,90.160004,90.83000200000001,1342800.0,81.294838,2013-12-03,PPG,-0.0108893879638523,-0.0108896872287991
553082,559036,90.855003,92.300003,90.855003,91.474998,1929600.0,81.872124,2013-12-04,PPG,0.007101139681218171,0.007101133830207379
553083,559037,91.0,91.644997,90.425003,90.889999,1156000.0,81.348526,2013-12-05,PPG,-0.00639531472274979,-0.0063951791504821606
553084,559038,92.5,93.980003,91.480003,93.91999799999999,1894400.0,84.06043199999999,2013-12-06,PPG,0.0333368793922584,0.0333369901346352
553085,559039,94.095001,94.5,93.014999,93.355003,1417000.0,83.554749,2013-12-09,PPG,-0.00601570784218675,-0.00601570498329873
553086,559040,93.355003,94.0,92.95500200000001,93.675003,1103600.0,83.841179,2013-12-10,PPG,0.00342805170774918,0.00342777558477514
553087,559041,93.54499799999999,93.614998,90.745003,91.175003,2164000.0,81.603592,2013-12-11,PPG,-0.0266884009348197,-0.0266880162256307
553088,559042,91.110001,92.29499799999999,91.025002,91.959999,1797800.0,82.306236,2013-12-12,PPG,0.00861045430451135,0.00860977213239011
553089,559043,91.964996,92.57,91.144997,91.45500200000001,1353400.0,81.85421,2013-12-13,PPG,-0.005492001845400879,-0.00549148548816325
553090,559044,91.45500200000001,92.150002,90.75,91.199997,1908000.0,81.625984,2013-12-16,PPG,-0.00278820112001565,-0.00278831113031952
553091,559045,91.605003,92.0,90.95500200000001,91.805,1786800.0,82.167465,2013-12-17,PPG,0.00663368419546417,0.0066338050427787705
553092,559046,91.879997,92.815002,90.449997,92.614998,1919000.0,82.892426,2013-12-18,PPG,0.008822969042552309,0.008823027068242341
553093,559047,92.43,92.904999,92.175003,92.650002,1435200.0,82.923767,2013-12-19,PPG,0.00037809244477893196,0.00037795174384180896
553094,559048,92.510002,93.675003,92.385002,93.309998,4534400.0,83.514481,2013-12-20,PPG,0.00712357893726656,0.0071235400512996705
553095,559049,93.699997,93.709999,92.540001,92.75,1373600.0,83.01326800000001,2013-12-23,PPG,-0.0060015100854187205,-0.00600147906979909
553096,559050,92.805,93.800003,92.805,93.790001,373000.0,83.944092,2013-12-24,PPG,0.0112129545363762,0.011212948787062001
553097,559051,93.91999799999999,94.184998,93.625,94.040001,609800.0,84.167839,2013-12-26,PPG,0.00266542879515574,0.00266552934571362
553098,559052,94.290001,94.290001,93.625,93.889999,783000.0,84.033585,2013-12-27,PPG,-0.00159507481236387,-0.0015950871799757
553099,559053,93.910004,94.415001,93.550003,94.235001,1015200.0,84.342377,2013-12-30,PPG,0.0036746260438609295,0.0036745340683195203
553100,559054,94.385002,95.035004,94.129997,94.83000200000001,1038800.0,84.87490799999999,2013-12-31,PPG,0.006313919751159029,0.00631401277323684
553101,559055,94.75,95.144997,94.264999,94.470001,1368400.0,84.552704,2014-01-02,PPG,-0.00379622208250285,-0.0037962774692338296
553102,559056,94.699997,95.050003,94.440002,94.70500200000001,814200.0,84.763046,2014-01-03,PPG,0.0024877028178780197,0.00248757274809375
553103,559057,94.815002,94.995003,93.464996,93.760002,1564800.0,83.917252,2014-01-06,PPG,-0.0099783341905858,-0.009978353624869759
553104,559058,93.800003,94.57,93.010002,94.139999,2334800.0,84.257324,2014-01-07,PPG,0.00405246825765926,0.004052868940851879
553105,559059,94.275002,95.099998,93.70500200000001,94.735001,2006600.0,84.789886,2014-01-08,PPG,0.00632066121634711,0.00632039522328864
553106,559060,94.855003,95.614998,94.625,95.065002,2366000.0,85.085243,2014-01-09,PPG,0.00348339895161565,0.00348341158512278
553107,559061,95.285004,95.769997,94.815002,95.290001,2090200.0,85.286629,2014-01-10,PPG,0.00236687341893127,0.0023667910931091103
553108,559062,94.964996,95.675003,93.595001,93.879997,2609000.0,84.024635,2014-01-13,PPG,-0.0147970908781023,-0.0147969774918987
553109,559063,94.285004,95.504997,93.785004,95.445,1919400.0,85.42534599999999,2014-01-14,PPG,0.016670242007001998,0.0166702497870765
553110,559064,95.635002,95.775002,95.214996,95.349998,2111400.0,85.340324,2014-01-15,PPG,-0.000995278380259701,-0.000995358583477324
553111,559065,91.285004,94.945,91.285004,93.834999,3294200.0,83.98436,2014-01-16,PPG,-0.0158889014763993,-0.0158888204696135
553112,559066,94.25,96.114998,94.25,94.739998,3656400.0,84.79435699999999,2014-01-17,PPG,0.00964461716443399,0.00964457835183663
553113,559067,95.165001,95.769997,94.555,95.0,2339600.0,85.027069,2014-01-21,PPG,0.00274442791045626,0.0027443741343544698
553114,559068,95.074997,95.345001,93.29499799999999,93.58000200000001,2843800.0,83.756126,2014-01-22,PPG,-0.0149475104216518,-0.0149473473684211
553115,559069,93.355003,94.019997,92.885002,93.445,2456200.0,83.635307,2014-01-23,PPG,-0.00144250941119217,-0.00144263728483363
553116,559070,92.614998,92.849998,90.79499799999999,90.800003,2377200.0,81.267975,2014-01-24,PPG,-0.0283054141237263,-0.028305388196264998
553117,559071,91.0,92.245003,90.214996,91.595001,2781000.0,81.979515,2014-01-27,PPG,0.008755478403393191,0.00875548429221951
553118,559072,91.54499799999999,92.33000200000001,90.860001,91.214996,2033200.0,81.639404,2014-01-28,PPG,-0.00414873154592343,-0.004148752615876879
553119,559073,91.025002,92.434998,90.83000200000001,91.599998,1591000.0,81.984001,2014-01-29,PPG,0.00422096418048334,0.0042208191293458
553120,559074,91.849998,92.824997,91.434998,92.334999,1190000.0,82.641838,2014-01-30,PPG,0.008023967993462609,0.00802402855947659
553121,559075,91.105003,92.25,90.714996,91.18,2721200.0,81.608078,2014-01-31,PPG,-0.0125089183035837,-0.0125087887854961
553122,559076,91.254997,91.665001,88.334999,88.434998,2566800.0,79.151253,2014-02-03,PPG,-0.0301051692456231,-0.0301053081816189
553123,559077,88.864998,89.720001,88.400002,88.620003,1938000.0,79.316826,2014-02-04,PPG,0.00209185570315618,0.0020919885134165197
553124,559078,87.945,88.815002,86.915001,88.610001,2258600.0,79.307869,2014-02-05,PPG,-0.000112926858671925,-0.000112863909517147
553125,559079,88.714996,89.654999,88.410004,89.459999,1659000.0,80.068626,2014-02-06,PPG,0.00959245292544675,0.00959257409330116
553126,559080,90.300003,91.275002,90.25,91.269997,1596800.0,81.688644,2014-02-07,PPG,0.0202328687393736,0.0202324840178012
553127,559081,91.065002,92.45500200000001,90.864998,91.964996,2010600.0,82.31066899999999,2014-02-10,PPG,0.00761458349094402,0.0076147586594090795
553128,559082,92.20500200000001,93.309998,91.754997,92.58000200000001,1992200.0,82.861122,2014-02-11,PPG,0.00668750487254566,0.0066873922334536
553129,559083,93.014999,93.535004,92.625,92.879997,1361800.0,83.129616,2014-02-12,PPG,0.00324028921549013,0.00324038662258852
553130,559084,92.5,93.91999799999999,92.08000200000001,93.614998,1374400.0,83.787468,2014-02-13,PPG,0.00791356957549283,0.00791344771468938
553131,559085,93.614998,94.739998,93.550003,94.449997,1415000.0,84.534821,2014-02-14,PPG,0.00891962745550434,0.00891950027067234
553132,559086,94.230003,94.25,93.110001,93.29499799999999,2619800.0,83.50106,2014-02-18,PPG,-0.0122288187018222,-0.0122286822306621
553133,559087,92.824997,94.364998,92.79499799999999,93.529999,1718000.0,84.262337,2014-02-19,PPG,0.009116974083921871,0.00251890246034403
553134,559088,93.5,94.440002,93.04499799999999,94.375,1690800.0,85.02359,2014-02-20,PPG,0.00903432099207024,0.00903454516234947
553135,559089,94.385002,95.404999,94.349998,94.934998,2260000.0,85.52810699999999,2014-02-21,PPG,0.0059338473004964,0.00593375364238402
553136,559090,94.745003,95.495003,94.25,94.260002,1695400.0,84.91999100000001,2014-02-24,PPG,-0.007110130474418329,-0.007110085998000341
553137,559091,94.154999,96.0,94.150002,95.385002,1679200.0,85.93351,2014-02-25,PPG,0.0119349871339482,0.011935072948545001
553138,559092,95.199997,97.059998,95.125,96.565002,1781200.0,86.99658199999999,2014-02-26,PPG,0.0123708667317326,0.012370917599813
553139,559093,96.400002,97.334999,95.599998,96.845001,1586200.0,87.248825,2014-02-27,PPG,0.0028994587396546896,0.00289959088904679
553140,559094,97.019997,99.074997,96.875,98.910004,2879800.0,89.109222,2014-02-28,PPG,0.021322888875581,0.0213227629581005
553141,559095,96.614998,99.16999799999999,96.614998,98.529999,1615400.0,88.76688399999999,2014-03-03,PPG,-0.00384177969817756,-0.0038419268489767702
553142,559096,99.875,100.20500200000001,99.339996,100.095001,1354000.0,90.176796,2014-03-04,PPG,0.0158833107175418,0.0158835077223536
553143,559097,100.0,100.480003,99.555,99.769997,1194200.0,89.88401,2014-03-05,PPG,-0.00324679976432063,-0.0032469553599384603
553144,559098,99.879997,100.644997,99.724998,100.07,979200.0,90.154274,2014-03-06,PPG,0.00300680844123447,0.00300694606616037
553145,559099,100.16999799999999,100.620003,99.620003,100.035004,1540000.0,90.122742,2014-03-07,PPG,-0.000349756019331959,-0.00034971519936033397
553146,559100,99.660004,100.415001,99.32,100.150002,979200.0,90.226364,2014-03-10,PPG,0.00114978747539674,0.00114957760185619
553147,559101,100.5,100.5,98.724998,98.754997,1772000.0,88.969574,2014-03-11,PPG,-0.0139292989796198,-0.0139291559874357
553148,559102,98.605003,99.014999,98.099998,98.605003,1605600.0,88.834457,2014-03-12,PPG,-0.00151868772576114,-0.00151884972463734
553149,559103,99.114998,99.400002,97.254997,97.45500200000001,1022400.0,87.798393,2014-03-13,PPG,-0.0116628618555072,-0.0116627043761665
553150,559104,97.29499799999999,98.059998,97.125,97.290001,1214000.0,87.649757,2014-03-14,PPG,-0.00169292392401776,-0.00169309934445427
553151,559105,97.595001,98.595001,97.370003,97.980003,1668800.0,88.271385,2014-03-17,PPG,0.007092181670281141,0.00709221906575985
553152,559106,98.235001,99.404999,98.220001,98.980003,1223200.0,89.17231,2014-03-18,PPG,0.0102063086469075,0.0102061642108748
553153,559107,99.445,99.610001,97.224998,97.58000200000001,1495200.0,87.91100300000001,2014-03-19,PPG,-0.0141446038574082,-0.0141442812443641
553154,559108,97.239998,98.065002,97.004997,97.370003,1833800.0,87.72183199999999,2014-03-20,PPG,-0.0021518466806708103,-0.0021520700522222897
553155,559109,98.235001,99.07,97.269997,97.559998,3024800.0,87.893005,2014-03-21,PPG,0.00195131583663222,0.0019512682976912102
553156,559110,98.050003,98.199997,96.125,96.605003,1008800.0,87.032616,2014-03-24,PPG,-0.00978904976567818,-0.00978879683863865
553157,559111,97.07,97.54499799999999,96.20500200000001,96.434998,1555400.0,86.879463,2014-03-25,PPG,-0.00175971959753574,-0.0017597949870154
553158,559112,96.70500200000001,97.0,95.20500200000001,95.20500200000001,1492400.0,85.771362,2014-03-26,PPG,-0.0127544641936841,-0.0127546640276801
553159,559113,95.214996,95.480003,94.014999,94.764999,1201400.0,85.374939,2014-03-27,PPG,-0.0046218573514083,-0.00462163742194965
553160,559114,95.014999,95.855003,94.70500200000001,95.404999,1012800.0,85.951538,2014-03-28,PPG,0.00675372664102292,0.00675354832220276
553161,559115,96.360001,97.489998,96.004997,96.730003,1627800.0,87.145256,2014-03-31,PPG,0.0138882680610091,0.0138882030699459
553162,559116,97.540001,98.360001,96.690002,98.32,1093600.0,88.577698,2014-04-01,PPG,0.0164374065296222,0.0164374749373264
553163,559117,98.084999,98.995003,97.730003,98.629997,1458200.0,88.856972,2014-04-02,PPG,0.0031528703760173,0.00315293938161121
553164,559118,98.625,100.025002,98.08000200000001,98.684998,1224600.0,88.906525,2014-04-03,PPG,0.000557671490313716,0.000557649819253214
553165,559119,100.235001,100.79499799999999,98.355003,98.879997,2836400.0,89.082207,2014-04-04,PPG,0.00197603044320971,0.00197597409892047
553166,559120,98.635002,98.870003,96.144997,96.535004,2327000.0,86.969566,2014-04-07,PPG,-0.0237156338077703,-0.0237155448133762
553167,559121,96.440002,97.065002,95.150002,96.25,1858600.0,86.712807,2014-04-08,PPG,-0.00295228563058492,-0.00295233840773446
553168,559122,96.345001,97.985001,95.855003,97.845001,1432000.0,88.149757,2014-04-09,PPG,0.0165713699015648,0.016571438961039
553169,559123,97.989998,98.095001,94.945,94.980003,1847000.0,85.56864200000001,2014-04-10,PPG,-0.0292810222948203,-0.0292809849324852
553170,559124,94.699997,95.385002,93.815002,93.910004,1373400.0,84.60466,2014-04-11,PPG,-0.0112655989094697,-0.0112655187008154
553171,559125,94.58000200000001,94.849998,93.57,94.279999,1304200.0,84.938019,2014-04-14,PPG,0.00394019667474588,0.0039398890878548105
553172,559126,94.32,94.58000200000001,92.589996,94.264999,1875400.0,84.9245,2014-04-15,PPG,-0.00015916311869723602,-0.000159100553236091
553173,559127,95.0,95.964996,94.245003,95.815002,2034400.0,86.320915,2014-04-16,PPG,0.0164430170327763,0.0164430384176846
553174,559128,99.995003,100.0,98.239998,99.730003,3588200.0,89.848,2014-04-17,PPG,0.0408601438017657,0.0408600001907842
553175,559129,99.050003,99.709999,98.195,98.269997,2523000.0,88.532639,2014-04-21,PPG,-0.0146398472976582,-0.0146395864442117
553176,559130,98.434998,98.995003,98.139999,98.18,1778000.0,88.45156899999999,2014-04-22,PPG,-0.0009157074827510491,-0.000915813602802906
553177,559131,98.33000200000001,99.059998,97.964996,98.150002,1542200.0,88.424545,2014-04-23,PPG,-0.00030552312757747797,-0.000305540843348995
553178,559132,98.315002,98.470001,97.135002,97.254997,1536800.0,87.618202,2014-04-24,PPG,-0.00911899518397297,-0.00911874663028533
553179,559133,96.934998,97.150002,95.879997,96.489998,1429000.0,86.929024,2014-04-25,PPG,-0.00786569439076135,-0.007865909450390559
553180,559134,96.885002,97.285004,95.035004,95.735001,1583800.0,86.24883299999999,2014-04-28,PPG,-0.00782467084871441,-0.00782461411181712
553181,559135,96.175003,96.724998,95.589996,96.5,987400.0,86.938034,2014-04-29,PPG,0.00799084435148245,0.00799079743050291
553182,559136,96.144997,97.0,96.129997,96.809998,1117400.0,87.217316,2014-04-30,PPG,0.00321242599067739,0.00321241450777188
553183,559137,96.574997,97.105003,96.125,96.32,789000.0,86.775856,2014-05-01,PPG,-0.00506160955468971,-0.0050614400384555395
553184,559138,96.20500200000001,97.785004,96.089996,97.589996,1516200.0,87.92002099999999,2014-05-02,PPG,0.0131852920010378,0.0131851744186047
553185,559139,97.43,98.105003,96.79499799999999,97.945,888000.0,88.239861,2014-05-05,PPG,0.0036378517243529397,0.0036377089307391103
553186,559140,97.364998,98.245003,96.504997,97.735001,1240600.0,88.050667,2014-05-06,PPG,-0.0021440876929758,-0.00214405023227315
553187,559141,98.160004,99.449997,97.5,99.370003,1619800.0,89.523643,2014-05-07,PPG,0.0167287318788851,0.0167289300994635
553188,559142,98.809998,99.440002,97.485001,98.139999,1200800.0,89.01571700000001,2014-05-08,PPG,-0.005673652042958221,-0.0123780211619797
553189,559143,98.125,98.41999799999999,97.404999,98.309998,1005000.0,89.169899,2014-05-09,PPG,0.00173207614560922,0.0017322091067066801
553190,559144,98.915001,99.824997,98.360001,99.70500200000001,688800.0,90.435188,2014-05-12,PPG,0.0141896426281698,0.0141898487272882
553191,559145,99.650002,99.75,98.779999,98.864998,950000.0,89.673302,2014-05-13,PPG,-0.00842466319636548,-0.008424893266638641
553192,559146,98.79499799999999,99.20500200000001,98.165001,98.279999,866200.0,89.1427,2014-05-14,PPG,-0.00591705656160624,-0.005917149768212121
553193,559147,98.150002,98.224998,96.5,97.315002,933800.0,88.267433,2014-05-15,PPG,-0.00981871762914976,-0.00981885439376118
553194,559148,97.415001,97.790001,96.480003,97.68,1471400.0,88.598495,2014-05-16,PPG,0.0037506698535121298,0.00375068583978444
553195,559149,97.964996,99.235001,97.68,98.019997,986400.0,88.906876,2014-05-19,PPG,0.00348065731816316,0.00348072276822275
553196,559150,98.139999,98.620003,97.760002,97.845001,1540400.0,88.74812299999999,2014-05-20,PPG,-0.0017856099229038899,-0.0017853091752289
553197,559151,98.010002,98.945,97.860001,98.584999,1186400.0,89.41935,2014-05-21,PPG,0.00756328108482918,0.00756296175008475
553198,559152,98.504997,99.019997,98.150002,98.175003,691400.0,89.047455,2014-05-22,PPG,-0.00415899914280293,-0.0041588071629437
553199,559153,98.135002,99.514999,98.135002,99.43,605200.0,90.185783,2014-05-23,PPG,0.0127833861169868,0.012783264187931999
553200,559154,99.75,99.855003,98.915001,99.059998,1357800.0,89.85018199999999,2014-05-27,PPG,-0.00372121845413254,-0.00372123101679589
553201,559155,99.25,100.459999,98.974998,100.125,1453000.0,90.816177,2014-05-28,PPG,0.0107511746609483,0.0107510803705044
553202,559156,100.214996,100.5,99.010002,100.5,1044600.0,91.156296,2014-05-29,PPG,0.0037451367282284,0.0037453183520599295
553203,559157,100.464996,101.440002,100.07,100.805,1078200.0,91.43293800000001,2014-05-30,PPG,0.00303480957585189,0.0030348258706467397
553204,559158,100.904999,101.525002,100.480003,101.165001,615400.0,91.75946,2014-06-02,PPG,0.0035711638184481296,0.00357126134616337
553205,559159,100.70500200000001,101.150002,100.464996,100.860001,832200.0,91.482834,2014-06-03,PPG,-0.00301468644213909,-0.00301487665679956
553206,559160,100.815002,102.375,100.035004,101.93,1573600.0,92.453346,2014-06-04,PPG,0.0106086787822948,0.0106087546043154
553207,559161,101.790001,101.894997,100.550003,101.574997,986200.0,92.131348,2014-06-05,PPG,-0.00348281607893342,-0.0034828117335427
553208,559162,102.120003,102.900002,102.004997,102.464996,873600.0,92.938614,2014-06-06,PPG,0.00876212079302263,0.00876198893710045
553209,559163,102.315002,102.824997,102.18,102.555,840400.0,93.020256,2014-06-09,PPG,0.000878450801945485,0.000878387776446221
553210,559164,102.199997,102.945,101.629997,102.900002,834400.0,93.333191,2014-06-10,PPG,0.00336415973742321,0.00336406806104028
553211,559165,102.25,102.959999,102.144997,102.800003,763400.0,93.242462,2014-06-11,PPG,-0.000972097911020708,-0.000971807561286453
553212,559166,102.684998,102.855003,101.675003,101.790001,1284000.0,92.326378,2014-06-12,PPG,-0.00982475130268434,-0.0098249218922688
553213,559167,101.915001,102.375,101.605003,102.135002,504200.0,92.63930500000001,2014-06-13,PPG,0.00338935639823301,0.0033893407663883
553214,559168,101.875,102.125,100.904999,101.510002,861000.0,92.07240300000001,2014-06-16,PPG,-0.00611945437198602,-0.00611935171842459
553215,559169,101.260002,102.059998,101.025002,101.254997,725600.0,91.84111,2014-06-17,PPG,-0.00251207737024084,-0.0025121169833096603
553216,559170,101.125,102.0,100.635002,101.79499799999999,1122800.0,92.33090200000001,2014-06-18,PPG,0.00533303658895234,0.00533308000591814
553217,559171,101.70500200000001,102.025002,101.489998,101.610001,850200.0,92.16310899999999,2014-06-19,PPG,-0.00181730056097562,-0.00181734862846605
553218,559172,101.915001,102.730003,101.639999,102.285004,1507000.0,92.775352,2014-06-20,PPG,0.00664303761714446,0.0066430764034732795
553219,559173,102.440002,102.535004,101.849998,102.184998,599800.0,92.684639,2014-06-23,PPG,-0.000977770475071749,-0.000977719079915285
553220,559174,101.800003,102.745003,101.260002,101.514999,1050800.0,92.076942,2014-06-24,PPG,-0.00655660966646265,-0.00655672567513277
553221,559175,101.709999,102.925003,101.709999,102.235001,1229400.0,92.729988,2014-06-25,PPG,0.00709239453239019,0.00709256767071431
553222,559176,102.364998,102.385002,100.95500200000001,101.290001,955200.0,91.872849,2014-06-26,PPG,-0.0092433852142848,-0.00924340970075399
553223,559177,100.805,102.099998,100.800003,102.025002,1474000.0,92.539505,2014-06-27,PPG,0.00725628961392077,0.00725640233728497
553224,559178,105.964996,106.504997,104.300003,105.074997,2919000.0,95.305954,2014-06-30,PPG,0.0298947892578418,0.0298945840745977
553225,559179,105.110001,105.495003,104.415001,104.43,1358600.0,94.72093199999999,2014-07-01,PPG,-0.00613835731606016,-0.00613844414385267
553226,559180,104.285004,104.739998,103.970001,104.154999,925600.0,94.471489,2014-07-02,PPG,-0.0026334517063240103,-0.0026333524849181398
553227,559181,104.345001,105.18,104.190002,105.08000200000001,577200.0,95.31049300000001,2014-07-03,PPG,0.008881028645584271,0.008881023559896391
553228,559182,104.5,104.529999,103.654999,104.190002,1244000.0,94.50325,2014-07-07,PPG,-0.00846961309915795,-0.00846973718177113
553229,559183,103.949997,104.43,103.345001,103.400002,960000.0,93.786697,2014-07-08,PPG,-0.00758231066127346,-0.00758230141890204
553230,559184,103.900002,104.050003,103.190002,103.910004,849400.0,94.249268,2014-07-09,PPG,0.00493216004824215,0.00493232098776941
553231,559185,102.824997,103.904999,102.5,103.695,1188000.0,94.05426,2014-07-10,PPG,-0.00206906646744465,-0.00206913667330821
553232,559186,103.519997,104.099998,102.894997,104.014999,701000.0,94.344498,2014-07-11,PPG,0.00308585703614073,0.00308596364337732
553233,559187,104.245003,104.470001,103.95500200000001,103.995003,631200.0,94.326378,2014-07-14,PPG,-0.000192062074462429,-0.000192241505477586
553234,559188,104.360001,104.745003,102.690002,102.779999,1512400.0,93.224327,2014-07-15,PPG,-0.0116833808672268,-0.0116832921289496
553235,559189,103.375,103.595001,102.474998,102.894997,2035800.0,93.328621,2014-07-16,PPG,0.0011187423214114,0.0011188752784479
553236,559190,102.510002,104.875,102.510002,103.849998,1891000.0,94.194847,2014-07-17,PPG,0.00928146147150288,0.009281316175168359
553237,559191,104.099998,105.25,103.980003,104.775002,1398000.0,95.033836,2014-07-18,PPG,0.008906952203022291,0.00890711620427775
553238,559192,104.29499799999999,104.904999,104.110001,104.375,1377600.0,94.671021,2014-07-21,PPG,-0.0038177455027701397,-0.0038177236207545
553239,559193,104.639999,105.54499799999999,104.474998,105.055,1163000.0,95.287819,2014-07-22,PPG,0.0065151721560075,0.00651497005988033
553240,559194,105.084999,105.83000200000001,104.864998,105.154999,1485000.0,95.37850999999999,2014-07-23,PPG,0.0009517585873175529,0.000951872828518274
553241,559195,105.0,105.660004,104.709999,105.010002,914600.0,95.24700899999999,2014-07-24,PPG,-0.00137872776582482,-0.0013788883208490901
553242,559196,105.0,105.25,104.264999,104.434998,629400.0,94.725433,2014-07-25,PPG,-0.00547603547319797,-0.00547570697122746
553243,559197,104.639999,104.82,103.775002,104.334999,960000.0,94.63475799999999,2014-07-28,PPG,-0.0009572402799150609,-0.0009575238369803339
553244,559198,104.25,104.285004,102.45500200000001,102.495003,1429800.0,92.965813,2014-07-29,PPG,-0.0176356450343541,-0.0176354628613166
553245,559199,102.625,103.334999,101.800003,102.214996,1270400.0,92.711853,2014-07-30,PPG,-0.00273175688787874,-0.00273190879364138
553246,559200,101.910004,101.910004,99.16999799999999,99.18,1586600.0,89.95901500000001,2014-07-31,PPG,-0.0296924062126125,-0.0296922772466771
553247,559201,98.489998,99.620003,98.25,99.195,1409200.0,89.972633,2014-08-01,PPG,0.000151380047902938,0.000151240169388833
553248,559202,99.055,100.495003,99.055,100.309998,991000.0,90.983971,2014-08-04,PPG,0.0112405068772412,0.0112404657492817
553249,559203,99.629997,100.349998,98.839996,99.105003,1059400.0,89.890991,2014-08-05,PPG,-0.0120128852146935,-0.0120127108366606
553250,559204,98.949997,99.904999,98.815002,99.445,1186600.0,90.199409,2014-08-06,PPG,0.0034310223590705603,0.0034306744332572897
553251,559205,99.815002,100.0,98.5,98.660004,1035600.0,90.094383,2014-08-07,PPG,-0.0011643757000669999,-0.00789377042586348
553252,559206,98.894997,100.190002,98.510002,100.110001,763400.0,91.418472,2014-08-08,PPG,0.0146966875837309,0.0146969079790429
553253,559207,100.324997,100.555,99.58000200000001,99.589996,753800.0,90.943634,2014-08-11,PPG,-0.00519411437985962,-0.00519433617826048
553254,559208,99.675003,99.995003,99.235001,99.764999,557800.0,91.103439,2014-08-12,PPG,0.00175718731450725,0.00175723473269351
553255,559209,100.360001,101.055,99.599998,101.004997,815600.0,92.235802,2014-08-13,PPG,0.0124294210232834,0.0124291887177788
553256,559210,100.775002,101.050003,100.459999,100.785004,867400.0,92.034889,2014-08-14,PPG,-0.0021782539495889303,-0.00217804075574601
553257,559211,101.029999,101.885002,100.434998,101.135002,882200.0,92.354485,2014-08-15,PPG,0.0034725526751056,0.00347271901680934
553258,559212,101.150002,101.964996,101.110001,101.885002,974400.0,93.039375,2014-08-18,PPG,0.00741588240137991,0.00741583017915004
553259,559213,102.050003,102.644997,101.910004,102.315002,814600.0,93.432037,2014-08-19,PPG,0.00422038518637935,0.00422044453608605
553260,559214,102.0,102.370003,101.595001,102.040001,939800.0,93.18092299999999,2014-08-20,PPG,-0.00268766483171068,-0.0026877876618719397
553261,559215,102.349998,103.0,102.040001,102.540001,929000.0,93.637512,2014-08-21,PPG,0.00490002658591382,0.00490003915229287
553262,559216,102.550003,102.724998,102.214996,102.275002,644800.0,93.395523,2014-08-22,PPG,-0.0025843168494268398,-0.00258434754647607
553263,559217,102.555,103.18,102.459999,103.114998,921000.0,94.162582,2014-08-25,PPG,0.00821301680595554,0.0082131115480204
553264,559218,103.425003,103.425003,102.775002,103.230003,871600.0,94.267593,2014-08-26,PPG,0.00111520943637688,0.0011153081727257599
553265,559219,103.055,103.324997,102.285004,102.620003,859000.0,93.71057900000001,2014-08-27,PPG,-0.00590885989843837,-0.0059091347696657
553266,559220,102.345001,103.059998,102.18,102.720001,758000.0,93.80188000000001,2014-08-28,PPG,0.000974287011928476,0.0009744493965762051
553267,559221,102.970001,103.099998,102.605003,102.93,777000.0,93.993668,2014-08-29,PPG,0.00204460720829913,0.0020443827682596898
553268,559222,103.195,103.269997,102.285004,102.595001,858000.0,93.687737,2014-09-02,PPG,-0.00325480435554448,-0.00325462935975918
553269,559223,102.864998,103.059998,101.650002,101.764999,1174400.0,92.929802,2014-09-03,PPG,-0.00809001289037437,-0.008090082283833679
553270,559224,101.915001,102.504997,101.610001,101.809998,799000.0,92.970886,2014-09-04,PPG,0.00044209714339005197,0.000442185431554831
553271,559225,101.875,102.004997,101.474998,101.980003,1059200.0,93.126144,2014-09-05,PPG,0.00166996364862015,0.0016698261795467
553272,559226,101.855003,102.684998,101.614998,101.959999,656000.0,93.107864,2014-09-08,PPG,-0.000196292890640826,-0.000196156103270506
553273,559227,102.059998,102.144997,100.555,100.730003,836800.0,91.984665,2014-09-09,PPG,-0.0120634171137252,-0.0120635152222784
553274,559228,100.589996,101.324997,100.059998,101.230003,804200.0,92.44124599999999,2014-09-10,PPG,0.0049636643238304395,0.0049637643711775105
553275,559229,100.495003,101.065002,100.224998,100.709999,900800.0,91.96637700000001,2014-09-11,PPG,-0.00513698181870037,-0.00513685651081131
553276,559230,100.660004,100.889999,99.474998,99.839996,949800.0,91.17192800000001,2014-09-12,PPG,-0.008638472297326621,-0.008638695349406091
553277,559231,99.879997,100.195,99.239998,99.855003,992600.0,91.18562299999999,2014-09-15,PPG,0.000150210709594978,0.00015031050281688602
553278,559232,99.690002,100.934998,99.264999,100.260002,1623600.0,91.555458,2014-09-16,PPG,0.00405584770748346,0.0040558708911160295
553279,559233,100.730003,101.449997,100.415001,100.915001,1358600.0,92.153595,2014-09-17,PPG,0.00653305671847537,0.006533004058787211
553280,559234,101.105003,102.019997,100.945,101.58000200000001,1057600.0,92.76088,2014-09-18,PPG,0.0065899219666905,0.00658971405054021
553281,559235,101.980003,102.58000200000001,101.389999,101.404999,1459000.0,92.601036,2014-09-19,PPG,-0.00172318330744603,-0.00172280957427029
553282,559236,101.480003,101.730003,99.760002,99.839996,1357000.0,91.17192800000001,2014-09-22,PPG,-0.0154329590869804,-0.0154331937816992
553283,559237,99.620003,99.964996,99.04499799999999,99.139999,1344200.0,90.532684,2014-09-23,PPG,-0.00701141254795001,-0.0070111881815379
553284,559238,99.349998,100.415001,99.239998,100.269997,1175600.0,91.564583,2014-09-24,PPG,0.0113980824869833,0.0113980029392577
553285,559239,99.695,99.809998,98.70500200000001,98.70500200000001,1002600.0,90.135468,2014-09-25,PPG,-0.0156077268434673,-0.0156078093829005
553286,559240,98.559998,99.349998,98.5,99.224998,766800.0,90.61032900000001,2014-09-26,PPG,0.00526830348293061,0.00526818286270858
553287,559241,98.639999,99.945,98.364998,99.730003,1099400.0,91.071472,2014-09-29,PPG,0.00508929837347805,0.00508949367779277
553288,559242,99.540001,99.690002,98.190002,98.370003,1598800.0,89.829575,2014-09-30,PPG,-0.013636509575688,-0.0136368190022014
553289,559243,98.25,98.25,94.834999,95.584999,3029000.0,87.286339,2014-10-01,PPG,-0.0283117892965653,-0.0283115168757289
553290,559244,95.434998,95.949997,93.945,95.584999,1724800.0,87.286339,2014-10-02,PPG,0.0,0.0
553291,559245,96.014999,96.83000200000001,95.364998,95.925003,1442600.0,87.59684,2014-10-03,PPG,0.0035572691392178296,0.0035570853539477203
553292,559246,96.769997,96.769997,95.279999,95.635002,939400.0,87.332001,2014-10-06,PPG,-0.0030233853184658,-0.00302320553484892
553293,559247,95.195,95.195,93.165001,93.209999,2348000.0,85.117554,2014-10-07,PPG,-0.0253566501928658,-0.025356856269005003
553294,559248,93.224998,94.879997,92.540001,94.764999,2850200.0,86.537521,2014-10-08,PPG,0.0166824225235607,0.016682759539564
553295,559249,94.995003,95.129997,92.805,93.014999,2205000.0,84.939468,2014-10-09,PPG,-0.0184665909253396,-0.0184667336935233
553296,559250,92.889999,93.70500200000001,91.730003,91.775002,2004000.0,83.807137,2014-10-10,PPG,-0.0133310347552449,-0.0133311510329641
553297,559251,91.644997,91.995003,88.089996,88.29499799999999,2501000.0,80.629257,2014-10-13,PPG,-0.0379189662570146,-0.037918865967445
553298,559252,88.559998,89.980003,87.709999,88.790001,2546000.0,81.08126800000001,2014-10-14,PPG,0.0056060419854793205,0.00560624057095516
553299,559253,87.684998,90.57,86.504997,90.25,3388200.0,82.41452,2014-10-15,PPG,0.0164434034258074,0.0164432817159219
553300,559254,86.949997,91.75,85.779999,90.915001,4098600.0,83.021782,2014-10-16,PPG,0.00736838605624346,0.00736843213296412
553301,559255,92.32,94.184998,91.824997,93.625,3454600.0,85.49650600000001,2014-10-17,PPG,0.0298081291485648,0.0298080511487868
553302,559256,93.889999,95.635002,93.385002,95.589996,2413200.0,87.290901,2014-10-20,PPG,0.0209879337057355,0.0209879412550067
553303,559257,95.974998,98.139999,95.974998,98.019997,2398800.0,89.50993299999999,2014-10-21,PPG,0.0254211146245358,0.0254210806745929
553304,559258,98.629997,99.25,96.650002,96.855003,2937400.0,88.446083,2014-10-22,PPG,-0.011885273112649999,-0.0118852686763499
553305,559259,97.985001,98.285004,97.055,97.449997,1712000.0,88.98943299999999,2014-10-23,PPG,0.00614329070966324,0.00614314161964358
553306,559260,97.43,98.055,96.309998,97.925003,1615000.0,89.42318,2014-10-24,PPG,0.0048741405060981294,0.00487435623009835
553307,559261,96.58000200000001,96.91999799999999,95.599998,96.300003,2100200.0,87.93927,2014-10-27,PPG,-0.0165942432376036,-0.0165943318888639
553308,559262,97.385002,98.43,96.980003,97.695,2245800.0,89.21315,2014-10-28,PPG,0.0144859060121831,0.0144859497044874
553309,559263,97.504997,97.714996,95.389999,96.025002,3746800.0,87.688156,2014-10-29,PPG,-0.0170938252936926,-0.0170939966221403
553310,559264,95.66999799999999,96.720001,95.389999,96.175003,1368200.0,87.825127,2014-10-30,PPG,0.0015620239522427,0.0015621035863140301
553311,559265,97.394997,102.25,96.775002,101.845001,5398200.0,93.00284599999999,2014-10-31,PPG,0.0589548706260341,0.0589550072590068
553312,559266,102.025002,102.389999,99.940002,100.184998,2409200.0,91.48696899999999,2014-11-03,PPG,-0.0162992538959507,-0.0162993076115734
553313,559267,100.125,100.394997,98.635002,99.235001,1712600.0,90.619469,2014-11-04,PPG,-0.00948222473082483,-0.00948242769840646
553314,559268,100.209999,102.730003,99.824997,102.625,2963400.0,93.71513399999999,2014-11-05,PPG,0.0341611469826646,0.0341613237853446
553315,559269,102.5,103.129997,101.58000200000001,103.04499799999999,1990200.0,94.71704100000001,2014-11-06,PPG,0.0106909840197207,0.00409255054811219
553316,559270,101.529999,103.745003,101.529999,103.449997,1819400.0,95.089294,2014-11-07,PPG,0.00393015867123636,0.0039303120758951106
553317,559271,103.285004,103.665001,102.66999799999999,103.135002,1232000.0,94.799774,2014-11-10,PPG,-0.00304471710558707,-0.00304490100661869
553318,559272,103.125,103.504997,102.355003,102.629997,1409600.0,94.335564,2014-11-11,PPG,-0.0048967416314725795,-0.00489654327053779
553319,559273,102.620003,102.79499799999999,101.58000200000001,101.949997,2076600.0,93.710548,2014-11-12,PPG,-0.00662545463765929,-0.00662574315382669
553320,559274,102.114998,103.495003,101.504997,102.614998,1980000.0,94.321777,2014-11-13,PPG,0.00652252081590632,0.00652281529738552
553321,559275,102.555,103.175003,101.735001,101.949997,1606400.0,93.710548,2014-11-14,PPG,-0.00648025322932577,-0.006480543906457029
553322,559276,102.0,103.184998,101.70500200000001,102.665001,1093200.0,94.367737,2014-11-17,PPG,0.007012967206210471,0.00701328122648204
553323,559277,102.474998,104.375,102.175003,104.25,1803000.0,95.82465400000001,2014-11-18,PPG,0.0154387192733041,0.0154385524235274
553324,559278,104.345001,105.540001,104.010002,105.33000200000001,2718600.0,96.81738299999999,2014-11-19,PPG,0.0103598495643931,0.010359731414868
553325,559279,104.91999799999999,106.440002,104.805,106.33000200000001,1405800.0,97.73655699999999,2014-11-20,PPG,0.00949389429375502,0.0094939711479356
553326,559280,107.519997,108.864998,106.849998,107.675003,2580800.0,98.97285500000001,2014-11-21,PPG,0.0126492894567587,0.012649308517834999
553327,559281,107.800003,108.269997,107.224998,107.785004,2368000.0,99.073936,2014-11-24,PPG,0.00102130023429159,0.00102160201472201
553328,559282,107.589996,108.720001,107.589996,107.699997,1364000.0,98.995834,2014-11-25,PPG,-0.000788320350975091,-0.000788671863852231
553329,559283,107.574997,108.565002,107.275002,108.474998,909200.0,99.708191,2014-11-26,PPG,0.007195828058784709,0.0071959240630248295
553330,559284,109.150002,109.769997,108.239998,109.410004,1286400.0,100.567619,2014-11-28,PPG,0.008619432279139309,0.0086195530512938
553331,559285,108.730003,110.389999,108.394997,109.934998,3195800.0,101.05019399999999,2014-12-01,PPG,0.00479851273002696,0.00479840947634003
553332,559286,110.605003,111.120003,108.974998,109.565002,1815200.0,100.710083,2014-12-02,PPG,-0.00336576295934676,-0.00336558881822135
553333,559287,109.800003,111.815002,109.565002,111.629997,1591600.0,102.6082,2014-12-03,PPG,0.018847338255098,0.0188472136385303
553334,559288,111.555,112.584999,111.230003,111.855003,2052800.0,102.815025,2014-12-04,PPG,0.00201567710962691,0.00201564101090135
553335,559289,111.949997,112.724998,111.224998,111.425003,1527800.0,102.419777,2014-12-05,PPG,-0.0038442630345128,-0.00384426255837655
553336,559290,111.199997,111.974998,110.834999,111.41999799999999,1805200.0,102.415154,2014-12-08,PPG,-4.51377667030073e-05,-4.49181051401792e-05
553337,559291,110.504997,112.894997,110.504997,112.845001,1781200.0,103.725037,2014-12-09,PPG,0.0127899334116122,0.0127894724966697
553338,559292,112.805,112.805,110.239998,110.425003,1528000.0,101.50061,2014-12-10,PPG,-0.0214454201640826,-0.0214453274717946
553339,559293,110.43,112.154999,110.235001,111.300003,1498800.0,102.30487099999999,2014-12-11,PPG,0.00792370607427895,0.007923930054138271
553340,559294,110.82,111.20500200000001,109.879997,109.910004,2742000.0,101.027206,2014-12-12,PPG,-0.012488799286986001,-0.0124887597711925
553341,559295,110.510002,111.235001,108.114998,109.055,2577400.0,100.241302,2014-12-15,PPG,-0.00777913228640614,-0.00777912809465453
553342,559296,108.144997,110.665001,108.019997,108.33000200000001,1945000.0,99.574928,2014-12-16,PPG,-0.00664769896943285,-0.00664800330108672
553343,559297,108.54499799999999,111.519997,108.345001,111.129997,1943000.0,102.148636,2014-12-17,PPG,0.025846948139395,0.0258469025044421
553344,559298,112.214996,113.550003,111.45500200000001,113.504997,1510200.0,104.331673,2014-12-18,PPG,0.0213711811090653,0.0213713674445613
553345,559299,114.040001,114.800003,113.504997,113.949997,2125800.0,104.740707,2014-12-19,PPG,0.003920516064187089,0.00392053223877009
553346,559300,114.32,115.014999,113.665001,114.800003,1643600.0,105.52201799999999,2014-12-22,PPG,0.007459478004096409,0.00745946487387794
553347,559301,115.089996,116.08000200000001,115.0,115.535004,1018800.0,106.19760900000001,2014-12-23,PPG,0.00640236997742027,0.00640244756788033
553348,559302,115.75,115.91999799999999,115.190002,115.559998,541600.0,106.22058899999999,2014-12-24,PPG,0.000216389052601018,0.000216332705540889
553349,559303,115.690002,116.394997,115.29499799999999,115.79499799999999,605000.0,106.43659199999999,2014-12-26,PPG,0.00203353231264791,0.00203357566690165
553350,559304,115.45500200000001,116.58000200000001,115.305,116.230003,868600.0,106.83645600000001,2014-12-29,PPG,0.00375682829078183,0.0037566821323318203
553351,559305,115.764999,116.305,115.565002,115.83000200000001,843200.0,106.468781,2014-12-30,PPG,-0.00344147507101877,-0.0034414608076711603
553352,559306,116.125,116.834999,115.510002,115.574997,1267200.0,106.23436699999999,2014-12-31,PPG,-0.00220171582503603,-0.00220154533019867
553353,559307,115.574997,116.16999799999999,113.79499799999999,114.699997,888600.0,105.430077,2015-01-02,PPG,-0.00757090217330525,-0.007570841641466821
553354,559308,113.529999,113.875,111.29499799999999,111.739998,1931800.0,102.70929699999999,2015-01-05,PPG,-0.0258064878393287,-0.0258064435694797
553355,559309,112.355003,112.650002,109.904999,111.464996,1710600.0,102.456535,2015-01-06,PPG,-0.0024609456727174802,-0.00246108828460867
553356,559310,111.489998,112.349998,110.695,111.959999,2366400.0,102.911537,2015-01-07,PPG,0.00444092707214816,0.00444088294768341
553357,559311,113.120003,115.345001,112.464996,114.940002,2075800.0,105.65068799999999,2015-01-08,PPG,0.0266165590355532,0.0266166758361619
553358,559312,115.114998,115.385002,112.875,113.485001,1600200.0,104.313301,2015-01-09,PPG,-0.0126585735059294,-0.0126587869730506
553359,559313,113.5,114.025002,112.415001,113.125,1446800.0,103.982391,2015-01-12,PPG,-0.00317227042791013,-0.0031722341880227
553360,559314,113.70500200000001,115.120003,112.235001,113.495003,1656400.0,104.322487,2015-01-13,PPG,0.0032707076335645197,0.00327074475138112
553361,559315,112.160004,113.519997,111.264999,113.485001,2555800.0,104.313301,2015-01-14,PPG,-8.80538823810895e-05,-8.812722794504509e-05
553362,559316,114.555,116.989998,112.385002,113.099998,3105000.0,103.959404,2015-01-15,PPG,-0.0033926354223992,-0.00339254524040578
553363,559317,113.035004,115.449997,112.529999,115.190002,1886400.0,105.88049299999999,2015-01-16,PPG,0.0184792229089732,0.0184792576212072
553364,559318,115.54499799999999,116.0,113.08000200000001,114.08000200000001,2082000.0,104.860207,2015-01-20,PPG,-0.00963620371506957,-0.00963625297966408
553365,559319,113.735001,114.809998,113.105003,114.014999,1469000.0,104.800446,2015-01-21,PPG,-0.0005699111389319,-0.000569801883418486
553366,559320,114.355003,115.980003,113.154999,115.675003,1175400.0,106.32628600000001,2015-01-22,PPG,0.0145594800235869,0.0145595229974962
553367,559321,115.5,115.5,113.885002,113.904999,952200.0,104.699341,2015-01-23,PPG,-0.0153014373134409,-0.0153015254298287
553368,559322,113.550003,114.074997,112.605003,113.910004,1002200.0,104.703972,2015-01-26,PPG,4.42314149808887e-05,4.39401259288985e-05
553369,559323,113.0,114.014999,112.129997,112.980003,1246400.0,103.849113,2015-01-27,PPG,-0.00816453266930495,-0.00816434876079897
553370,559324,113.065002,113.855003,110.620003,110.870003,1411200.0,101.909637,2015-01-28,PPG,-0.0186759033753133,-0.0186758713398157
553371,559325,111.0,113.035004,110.154999,112.855003,1528800.0,103.734222,2015-01-29,PPG,0.0179039495548394,0.0179038508729905
553372,559326,111.370003,113.029999,111.370003,111.440002,2708400.0,102.43355600000001,2015-01-30,PPG,-0.0125384465697348,-0.0125382212785018
553373,559327,110.625,112.120003,109.940002,111.864998,1589600.0,102.824219,2015-02-02,PPG,0.00381381858890073,0.0038136754520157203
553374,559328,113.214996,113.875,111.91999799999999,113.449997,1328000.0,104.281113,2015-02-03,PPG,0.0141687825511225,0.014168855569996999
553375,559329,113.300003,114.470001,112.504997,113.724998,1100000.0,104.533905,2015-02-04,PPG,0.0024241398344109198,0.00242398419807799
553376,559330,114.480003,115.614998,113.915001,115.184998,1352800.0,105.87590800000001,2015-02-05,PPG,0.0128379686954199,0.0128379865964032
553377,559331,115.089996,116.0,114.555,115.43,1146000.0,106.101097,2015-02-06,PPG,0.00212691446292013,0.00212703046624196
553378,559332,115.18,115.43,113.089996,113.410004,1741800.0,104.24434699999999,2015-02-09,PPG,-0.0174998190640762,-0.0174997487654857
553379,559333,114.589996,114.724998,112.949997,114.120003,1005000.0,104.896965,2015-02-10,PPG,0.00626046417653692,0.00626046181957629
553380,559334,113.959999,114.599998,113.45500200000001,114.110001,776000.0,104.88778700000002,2015-02-11,PPG,-8.749538177765799e-05,-8.764458234378209e-05
553381,559335,115.129997,116.79499799999999,114.559998,116.514999,1624800.0,107.098396,2015-02-12,PPG,0.0210759428073355,0.0210761368760308
553382,559336,116.845001,118.425003,116.550003,118.385002,1251200.0,108.817299,2015-02-13,PPG,0.0160497548441343,0.0160494615804785
553383,559337,117.150002,118.489998,116.754997,117.925003,1739200.0,108.39446299999999,2015-02-17,PPG,-0.0038857424682081604,-0.00388561888946026
553384,559338,117.150002,118.190002,116.614998,118.120003,1144000.0,109.194092,2015-02-18,PPG,0.00737702810520857,0.0016535933435590801
553385,559339,117.239998,118.57,117.010002,117.75,948800.0,108.852051,2015-02-19,PPG,-0.00313241306132195,-0.00313243303930488
553386,559340,117.315002,118.599998,116.050003,118.32,1347400.0,109.378975,2015-02-20,PPG,0.00484073561461873,0.00484076433121006
553387,559341,117.605003,118.550003,117.410004,118.245003,1347600.0,109.30963100000001,2015-02-23,PPG,-0.000633979245097116,-0.000633848884381338
553388,559342,118.425003,118.599998,117.754997,118.385002,994800.0,109.43908700000001,2015-02-24,PPG,0.0011843055256495199,0.0011839739223482599
553389,559343,118.0,118.70500200000001,117.584999,117.834999,1086200.0,108.930626,2015-02-25,PPG,-0.00464606397895106,-0.00464588411292166
553390,559344,117.620003,118.404999,117.33000200000001,117.91999799999999,967600.0,109.009193,2015-02-26,PPG,0.000721257215578586,0.000721339166812385
553391,559345,117.934998,118.480003,117.050003,117.690002,1394800.0,108.79656999999999,2015-02-27,PPG,-0.0019505052202339898,-0.0019504410100142898
553392,559346,117.690002,118.875,117.690002,118.849998,1454800.0,109.86893500000001,2015-03-02,PPG,0.00985660669265576,0.00985636825802749
553393,559347,118.445,118.489998,116.915001,117.269997,1237600.0,108.408318,2015-03-03,PPG,-0.0132941763747869,-0.0132940767908132
553394,559348,116.559998,118.949997,116.105003,117.66999799999999,1687000.0,108.778099,2015-03-04,PPG,0.0034110020967210697,0.00341094065176795
553395,559349,117.915001,118.135002,117.059998,117.724998,974400.0,108.828949,2015-03-05,PPG,0.00046746542242837003,0.0004674088632175
553396,559350,116.684998,117.385002,115.824997,115.985001,1090000.0,107.220444,2015-03-06,PPG,-0.0147801206827789,-0.0147801828801051
553397,559351,116.220001,116.860001,115.760002,116.144997,1418600.0,107.36835500000001,2015-03-09,PPG,0.00137950370733386,0.00137945422787911
553398,559352,114.964996,115.059998,113.82,113.834999,1606800.0,105.232887,2015-03-10,PPG,-0.0198891749808404,-0.019888915232396998
553399,559353,113.910004,114.074997,112.504997,112.589996,1594200.0,104.081963,2015-03-11,PPG,-0.0109369231692751,-0.0109369087796979
553400,559354,112.695,114.915001,112.555,114.849998,986400.0,106.171181,2015-03-12,PPG,0.0200728151139886,0.0200728491010871
553401,559355,114.355003,114.745003,113.16999799999999,113.95500200000001,1181600.0,105.343819,2015-03-13,PPG,-0.007792717309982771,-0.007792738490078221
553402,559356,114.370003,115.125,114.014999,115.040001,1091200.0,106.34683999999999,2015-03-16,PPG,0.0095214034342157,0.00952129332593943
553403,559357,114.235001,114.769997,113.065002,113.629997,1116200.0,105.043388,2015-03-17,PPG,-0.0122566124202657,-0.0122566410617468
553404,559358,112.95500200000001,116.08000200000001,111.5,114.82,2110200.0,106.14344799999999,2015-03-18,PPG,0.0104724344953535,0.010472613142813
553405,559359,114.084999,114.485001,112.925003,113.084999,1015800.0,104.53958100000001,2015-03-19,PPG,-0.0151103721446849,-0.0151106166173141
553406,559360,113.66999799999999,115.125,112.889999,114.529999,1555000.0,105.875359,2015-03-20,PPG,0.012777724831325,0.0127779989634169
553407,559361,114.364998,114.910004,113.209999,113.214996,1290200.0,104.65973699999999,2015-03-23,PPG,-0.0114816328509451,-0.011481734143733
553408,559362,113.195,113.934998,112.745003,112.745003,1172800.0,104.225258,2015-03-24,PPG,-0.00415134809673767,-0.0041513316840111605
553409,559363,112.894997,113.514999,111.139999,111.230003,1306800.0,102.82476,2015-03-25,PPG,-0.0134372226739894,-0.0134374026314941
553410,559364,110.29499799999999,111.25,110.025002,110.650002,1125200.0,102.28858199999999,2015-03-26,PPG,-0.0052144833598444205,-0.00521442941973127
553411,559365,111.010002,112.0,110.464996,111.480003,1222800.0,103.055862,2015-03-27,PPG,0.0075011304780821,0.007501138590128459
553412,559366,112.150002,113.025002,111.574997,112.245003,1265200.0,103.763039,2015-03-30,PPG,0.00686207447374509,0.00686221725343872
553413,559367,111.464996,113.199997,111.08000200000001,112.769997,1837000.0,104.248367,2015-03-31,PPG,0.00467727241489135,0.00467721489570461
553414,559368,112.675003,112.980003,111.175003,112.230003,1623600.0,103.749184,2015-04-01,PPG,-0.00478840114589041,-0.00478845450355037
553415,559369,111.709999,112.635002,111.464996,111.790001,1421000.0,103.34243000000001,2015-04-02,PPG,-0.00392055131730007,-0.0039205380757229
553416,559370,111.33000200000001,112.485001,111.0,112.110001,1100600.0,103.638245,2015-04-06,PPG,0.00286247381641802,0.00286251003790583
553417,559371,112.019997,113.165001,111.70500200000001,112.449997,1187400.0,103.95255999999999,2015-04-07,PPG,0.0030328089789633,0.00303269999970834
553418,559372,112.160004,113.33000200000001,112.160004,113.065002,1620000.0,104.52108,2015-04-08,PPG,0.00546903318205905,0.00546914198672677
553419,559373,113.184998,114.260002,112.709999,114.16999799999999,1177200.0,105.54257199999999,2015-04-09,PPG,0.0097730716138793,0.00977310379386886
553420,559374,114.5,114.949997,113.514999,114.75,1408600.0,106.07874299999999,2015-04-10,PPG,0.00508013960470843,0.0050801612521704795
553421,559375,114.675003,115.375,114.209999,114.79499799999999,1344600.0,106.120354,2015-04-13,PPG,0.000392265206234699,0.00039213943355132
553422,559376,114.70500200000001,114.860001,113.459999,113.980003,1281200.0,105.36694299999999,2015-04-14,PPG,-0.007099589961789941,-0.0070995689202417705
553423,559377,114.370003,114.54499799999999,113.260002,113.635002,1849800.0,105.047997,2015-04-15,PPG,-0.00302700250115462,-0.0030268555090317
553424,559378,116.514999,116.555,113.285004,113.375,2492600.0,104.80765500000001,2015-04-16,PPG,-0.00228792558510182,-0.0022880450162705603
553425,559379,112.565002,114.004997,112.175003,113.305,2211800.0,104.742928,2015-04-17,PPG,-0.000617578935431684,-0.000617420066152063
553426,559380,114.019997,114.470001,112.735001,113.839996,1912000.0,105.237503,2015-04-20,PPG,0.00472179849698295,0.00472173337451998
553427,559381,114.105003,114.139999,112.785004,113.525002,1181400.0,104.94632,2015-04-21,PPG,-0.00276691285615172,-0.0027669888533727897
553428,559382,113.58000200000001,114.199997,112.745003,113.199997,872200.0,104.645866,2015-04-22,PPG,-0.00286293030570295,-0.0028628495421652
553429,559383,113.040001,113.43,112.684998,112.940002,854600.0,104.405518,2015-04-23,PPG,-0.00229677491512181,-0.00229677567924302
553430,559384,112.934998,113.404999,111.25,111.654999,1729600.0,103.217636,2015-04-24,PPG,-0.0113775787214618,-0.0113777490459049
553431,559385,111.730003,111.980003,110.190002,110.425003,2169400.0,102.080566,2015-04-27,PPG,-0.0110162375739742,-0.0110160405805028
553432,559386,110.264999,110.66999799999999,109.300003,110.379997,1957200.0,102.03899399999999,2015-04-28,PPG,-0.000407246958250673,-0.000407570738304663
553433,559387,109.849998,111.165001,109.565002,111.084999,1753400.0,102.690704,2015-04-29,PPG,0.00638687206187072,0.0063870449280769605
553434,559388,110.239998,111.584999,110.010002,110.779999,2217800.0,102.408745,2015-04-30,PPG,-0.00274571104313392,-0.0027456452513448
553435,559389,110.864998,112.404999,110.58000200000001,112.275002,1515600.0,103.790779,2015-05-01,PPG,0.0134952732796403,0.0134952429454345
553436,559390,112.440002,113.0,112.285004,112.514999,1090800.0,104.01263399999999,2015-05-04,PPG,0.00213752129175182,0.00213758179224977
553437,559391,113.25,113.489998,110.70500200000001,110.790001,1420800.0,102.417992,2015-05-05,PPG,-0.0153312337037826,-0.0153312715222972
553438,559392,111.33000200000001,111.400002,110.33000200000001,111.025002,1411400.0,102.635246,2015-05-06,PPG,0.00212124838378003,0.00212113907283018
553439,559393,110.75,112.879997,110.339996,112.45500200000001,2165000.0,104.63575,2015-05-07,PPG,0.0194913938239112,0.0128799817540197
553440,559394,113.889999,115.260002,113.400002,114.525002,1585200.0,106.561821,2015-05-08,PPG,0.0184073894438563,0.0184073626178052
553441,559395,114.264999,115.089996,113.605003,113.665001,1722000.0,105.76162,2015-05-11,PPG,-0.00750926544320218,-0.007509286050918379
553442,559396,113.254997,113.660004,112.209999,112.245003,1247600.0,104.44034599999999,2015-05-12,PPG,-0.012492944037733,-0.012492834095871
553443,559397,112.254997,112.900002,111.25,112.699997,1544600.0,104.863693,2015-05-13,PPG,0.00405348140076045,0.00405357911567794
553444,559398,113.614998,114.5,113.0,114.400002,1527400.0,106.445503,2015-05-14,PPG,0.0150844391871647,0.0150843393545077
553445,559399,114.339996,115.889999,113.91999799999999,115.849998,1263000.0,107.79468500000002,2015-05-15,PPG,0.0126748614265086,0.0126747899882029
553446,559400,115.849998,115.849998,114.75,115.464996,1842600.0,107.436447,2015-05-18,PPG,-0.00332333639640958,-0.00332328016095429
553447,559401,115.440002,115.95500200000001,114.695,114.995003,1481600.0,106.99910700000001,2015-05-19,PPG,-0.00407068562123991,-0.00407043706994981
553448,559402,115.0,115.389999,114.114998,114.464996,1284800.0,106.505974,2015-05-20,PPG,-0.00460875808991568,-0.0046089567909311
553449,559403,114.160004,115.114998,114.120003,114.614998,664400.0,106.645554,2015-05-21,PPG,0.0013105368155217302,0.00131046175898186
553450,559404,114.32,115.160004,114.32,114.595001,742800.0,106.62696799999999,2015-05-22,PPG,-0.000174278245110848,-0.000174471058316472
553451,559405,114.209999,114.589996,112.875,113.360001,1470800.0,105.477814,2015-05-26,PPG,-0.0107773298027194,-0.0107770844209862
553452,559406,113.760002,114.824997,113.610001,114.57,1433800.0,106.603691,2015-05-27,PPG,0.0106740645952332,0.010673950152840998
553453,559407,114.144997,115.065002,113.675003,114.910004,1230800.0,106.920029,2015-05-28,PPG,0.00296742070591161,0.00296765296325407
553454,559408,114.635002,115.160004,114.019997,114.445,1199800.0,106.487381,2015-05-29,PPG,-0.00404646354893901,-0.00404667986957874
553455,559409,114.084999,115.129997,113.639999,114.514999,903400.0,106.55251299999999,2015-06-01,PPG,0.000611640547343306,0.000611638778452717
553456,559410,114.334999,114.95500200000001,113.504997,114.125,768600.0,106.18963600000001,2015-06-02,PPG,-0.00340561653388705,-0.00340565867707865
553457,559411,114.665001,115.050003,114.010002,114.995003,1114000.0,106.99910700000001,2015-06-03,PPG,0.0076228813892911295,0.007623246440306759
553458,559412,114.464996,115.125,114.120003,114.385002,1406600.0,106.431549,2015-06-04,PPG,-0.00530432464263453,-0.00530458701757675
553459,559413,113.959999,114.58000200000001,113.235001,114.315002,1045800.0,106.366425,2015-06-05,PPG,-0.000611886236852599,-0.000611968341793556
553460,559414,114.20500200000001,114.285004,113.605003,114.050003,1051000.0,106.11983500000001,2015-06-08,PPG,-0.00231830674012046,-0.00231814718421652
553461,559415,114.239998,115.144997,113.800003,114.625,1070600.0,106.65486100000001,2015-06-09,PPG,0.00504171534002107,0.00504162196295588
553462,559416,115.214996,116.495003,115.004997,115.940002,1979400.0,107.878426,2015-06-10,PPG,0.0114721915956555,0.0114722093784079
553463,559417,116.404999,117.474998,115.480003,116.995003,1806200.0,108.860069,2015-06-11,PPG,0.009099530243424029,0.00909954271003022
553464,559418,116.824997,116.970001,116.095001,116.625,1160800.0,108.51578500000001,2015-06-12,PPG,-0.0031626288974702104,-0.0031625538742026103
553465,559419,115.639999,116.139999,114.949997,115.43,990500.0,107.403893,2015-06-15,PPG,-0.0102463618541763,-0.0102465166130761
553466,559420,115.220001,116.190002,115.0,116.0,1286900.0,107.934242,2015-06-16,PPG,0.0049378936385480205,0.00493805769730571
553467,559421,116.269997,116.83000200000001,115.139999,116.66999799999999,2525400.0,108.557671,2015-06-17,PPG,0.00577600758061569,0.0057758448275862
553468,559422,117.120003,118.239998,116.790001,117.809998,1668900.0,109.618393,2015-06-18,PPG,0.00977104602769163,0.009771149563232
553469,559423,117.160004,118.019997,116.82,117.300003,2210000.0,109.14386699999999,2015-06-19,PPG,-0.00432889031679196,-0.00432896196127586
553470,559424,118.0,118.639999,117.760002,118.16999799999999,901000.0,109.953369,2015-06-22,PPG,0.007416834516226209,0.00741683697996165
553471,559425,118.480003,118.690002,117.760002,118.290001,1174900.0,110.065025,2015-06-23,PPG,0.00101548502802129,0.00101551156834234
553472,559426,118.279999,118.489998,117.900002,117.970001,1918300.0,109.76728100000001,2015-06-24,PPG,-0.00270516451524916,-0.00270521597172024
553473,559427,118.099998,118.559998,117.699997,117.739998,1207800.0,109.553253,2015-06-25,PPG,-0.0019498342133481602,-0.0019496736293153102
553474,559428,118.139999,118.230003,117.599998,118.010002,751300.0,109.804497,2015-06-26,PPG,0.00229335043113688,0.0022932223932941
553475,559429,117.139999,117.309998,114.879997,114.980003,996800.0,106.985176,2015-06-29,PPG,-0.0256758245520673,-0.0256757812782683
553476,559430,115.690002,116.0,114.400002,114.720001,1114600.0,106.74323999999999,2015-06-30,PPG,-0.0022613974107963397,-0.00226128016364724
553477,559431,115.779999,116.559998,115.230003,116.5,1256400.0,108.39948999999999,2015-07-01,PPG,0.0155162050542967,0.0155160301994768
553478,559432,117.150002,117.32,115.239998,115.910004,943200.0,107.85051000000001,2015-07-02,PPG,-0.005064414970955999,-0.0050643433476395
553479,559433,114.809998,115.980003,114.209999,115.099998,1425900.0,107.096832,2015-07-06,PPG,-0.00698817279584485,-0.00698823200799825
553480,559434,115.33000200000001,115.33000200000001,113.360001,115.059998,1640800.0,107.059624,2015-07-07,PPG,-0.00034742390886044504,-0.000347523898306279
553481,559435,113.910004,114.489998,113.019997,113.099998,1537000.0,105.23589299999999,2015-07-08,PPG,-0.0170347226326892,-0.0170345909444566
553482,559436,114.660004,114.849998,112.629997,112.639999,1718900.0,104.807884,2015-07-09,PPG,-0.00406713895609745,-0.004067188400834421
553483,559437,114.120003,115.029999,113.540001,114.900002,1364100.0,106.910728,2015-07-10,PPG,0.0200637959640517,0.0200639472661928
553484,559438,116.190002,116.610001,115.959999,116.529999,1474700.0,108.427406,2015-07-13,PPG,0.014186396710347,0.0141862225555054
553485,559439,116.5,117.889999,116.459999,117.610001,1185100.0,109.43231200000001,2015-07-14,PPG,0.009268007389201971,0.00926801689923629
553486,559440,117.32,117.989998,116.790001,116.980003,1509800.0,108.846107,2015-07-15,PPG,-0.00535678164233611,-0.0053566703056146
553487,559441,117.089996,118.269997,111.540001,111.82,5355400.0,104.044899,2015-07-16,PPG,-0.04411005714701401,-0.044110128805519004
553488,559442,112.459999,113.540001,111.660004,111.800003,3351900.0,104.02628299999999,2015-07-17,PPG,-0.000178922755261546,-0.000178832051511257
553489,559443,111.949997,112.0,110.620003,110.849998,2146900.0,103.142342,2015-07-20,PPG,-0.00849728524857518,-0.00849736113155564
553490,559444,111.120003,111.550003,107.860001,108.209999,3796700.0,100.685905,2015-07-21,PPG,-0.0238159901391418,-0.0238159589321779
553491,559445,108.120003,108.809998,107.290001,108.089996,2440900.0,100.574249,2015-07-22,PPG,-0.00110895363159336,-0.0011089825442101
553492,559446,108.099998,108.190002,105.099998,105.629997,3033200.0,98.28531600000001,2015-07-23,PPG,-0.0227586387445956,-0.022758803691694002
553493,559447,105.540001,105.599998,102.190002,103.25,3111900.0,96.07079300000001,2015-07-24,PPG,-0.022531575316907,-0.0225314500387612
553494,559448,102.690002,103.209999,101.610001,102.389999,2766000.0,95.270584,2015-07-27,PPG,-0.008329368115031491,-0.008329307506053209
553495,559449,103.010002,107.190002,102.639999,106.91999799999999,3080800.0,99.485603,2015-07-28,PPG,0.0442426069310125,0.0442425924821037
553496,559450,107.08000200000001,108.989998,106.839996,108.57,2653500.0,101.020889,2015-07-29,PPG,0.0154322429949989,0.0154321177596728
553497,559451,108.5,108.760002,107.57,108.519997,1233500.0,100.97435,2015-07-30,PPG,-0.00046068689813250096,-0.00046056000736838205
553498,559452,109.0,109.370003,108.18,108.379997,1362400.0,100.844086,2015-07-31,PPG,-0.00129007020099658,-0.0012900848126635698
553499,559453,107.309998,108.709999,107.07,107.870003,1535400.0,100.36955999999999,2015-08-03,PPG,-0.00470554118562783,-0.00470561002137693
553500,559454,108.0,108.459999,106.199997,106.540001,1598100.0,99.13202700000001,2015-08-04,PPG,-0.0123297641237046,-0.0123296742654211
553501,559455,107.690002,108.089996,106.260002,106.589996,1207700.0,99.178551,2015-08-05,PPG,0.00046931351459211795,0.00046926036728689403
553502,559456,106.239998,106.540001,104.910004,105.209999,1507300.0,98.22627299999999,2015-08-06,PPG,-0.009601652679922629,-0.012946777857088998
553503,559457,104.860001,105.150002,103.739998,103.91999799999999,1589300.0,97.021866,2015-08-07,PPG,-0.0122615565389517,-0.0122612015232506
553504,559458,104.720001,106.610001,104.400002,106.610001,1196600.0,99.533333,2015-08-10,PPG,0.0258855771749431,0.0258853257483702
553505,559459,105.360001,105.410004,103.800003,104.410004,1476900.0,97.479355,2015-08-11,PPG,-0.020636081783777998,-0.0206359345217527
553506,559460,103.639999,104.209999,102.25,104.029999,3558600.0,97.12458000000001,2015-08-12,PPG,-0.0036394885870962798,-0.0036395458810633
553507,559461,104.260002,104.400002,103.459999,103.519997,1230500.0,96.648422,2015-08-13,PPG,-0.004902548870738929,-0.00490245126312072
553508,559462,103.639999,104.800003,103.389999,104.699997,1344700.0,97.75012199999999,2015-08-14,PPG,0.0113990479844566,0.0113987638542918
553509,559463,104.209999,105.089996,103.849998,104.260002,1578000.0,97.33931700000001,2015-08-17,PPG,-0.0042026034504592,-0.0042024356504996
553510,559464,104.41999799999999,105.709999,104.360001,104.57,2426300.0,97.628738,2015-08-18,PPG,0.00297332063671663,0.00297331665119271
553511,559465,103.779999,104.089996,102.150002,102.5,2175200.0,95.696136,2015-08-19,PPG,-0.0197954213031003,-0.0197953523955244
553512,559466,101.910004,102.400002,99.870003,99.870003,2302400.0,93.24073,2015-08-20,PPG,-0.0256583609603631,-0.0256585073170732
553513,559467,98.559998,99.309998,97.120003,97.209999,2543000.0,90.75729399999999,2015-08-21,PPG,-0.0266346692051853,-0.0266346642645039
553514,559468,92.029999,95.949997,91.0,92.260002,3951100.0,86.13588,2015-08-24,PPG,-0.0509205794522697,-0.0509206568349002
553515,559469,94.870003,94.870003,91.019997,91.050003,2960900.0,85.006203,2015-08-25,PPG,-0.0131150572792662,-0.013115098349986998
553516,559470,92.68,93.220001,91.0,93.099998,3991700.0,86.920105,2015-08-26,PPG,0.0225148510632807,0.022515045935803
553517,559471,94.66999799999999,95.849998,93.269997,95.190002,4585900.0,88.871391,2015-08-27,PPG,0.0224491905526345,0.0224490230386472
553518,559472,94.849998,96.379997,94.849998,96.110001,1709800.0,89.730316,2015-08-28,PPG,0.009664808779689341,0.00966487005641614
553519,559473,95.559998,96.660004,94.760002,95.290001,1714100.0,88.964752,2015-08-31,PPG,-0.00853183220707698,-0.00853189045331493
553520,559474,93.269997,93.629997,90.809998,91.349998,2433800.0,85.28627,2015-09-01,PPG,-0.0413476339483305,-0.0413474966801607
553521,559475,92.849998,93.529999,91.620003,93.529999,2497700.0,87.321564,2015-09-02,PPG,0.0238642632630082,0.0238642698164044
553522,559476,94.059998,94.889999,93.559998,93.980003,1471700.0,87.74168399999999,2015-09-03,PPG,0.00481118272228853,0.00481133331349648
553523,559477,92.66999799999999,93.839996,92.290001,93.309998,2149400.0,87.116158,2015-09-04,PPG,-0.0071291770511267,-0.00712922939574712
553524,559478,94.940002,96.410004,94.519997,96.400002,1709600.0,90.001053,2015-09-08,PPG,0.0331154985048812,0.0331154652902255
553525,559479,97.360001,97.879997,95.970001,96.099998,2925400.0,89.720947,2015-09-09,PPG,-0.0031122524755349303,-0.0031120746242308
553526,559480,96.089996,97.389999,95.57,96.639999,2114900.0,90.225128,2015-09-10,PPG,0.00561943466780401,0.00561915724493578
553527,559481,96.300003,96.779999,95.41999799999999,96.720001,1472600.0,90.299812,2015-09-11,PPG,0.0008277516658108389,0.000827835273466748
553528,559482,96.309998,96.769997,93.739998,94.160004,2396200.0,87.90975999999999,2015-09-14,PPG,-0.0264679620816929,-0.0264681242093866
553529,559483,94.160004,95.33000200000001,93.66999799999999,94.279999,2385600.0,88.021782,2015-09-15,PPG,0.00127428399304019,0.00127437335283043
553530,559484,94.41999799999999,95.360001,94.32,95.07,1827500.0,88.759338,2015-09-16,PPG,0.00837924412845892,0.00837930641047202
553531,559485,95.07,96.040001,94.110001,94.459999,2171400.0,88.18982700000001,2015-09-17,PPG,-0.00641635024362175,-0.0064163353318607
553532,559486,93.110001,93.989998,92.730003,93.190002,2220800.0,87.00412800000001,2015-09-18,PPG,-0.013444850050562,-0.0134448127614313
553533,559487,93.550003,94.33000200000001,93.019997,93.449997,1186600.0,87.246872,2015-09-21,PPG,0.0027900285374964397,0.0027899452132214
553534,559488,92.230003,92.57,90.540001,91.620003,1904700.0,85.538353,2015-09-22,PPG,-0.0195825817113534,-0.0195826009496822
553535,559489,91.75,92.16999799999999,89.800003,89.940002,1698800.0,83.969872,2015-09-23,PPG,-0.018336581720249,-0.0183366180418045
553536,559490,89.050003,89.459999,87.190002,88.110001,3718200.0,82.26134499999999,2015-09-24,PPG,-0.0203469048994143,-0.020346908598023
553537,559491,88.660004,89.230003,87.629997,88.339996,1507100.0,82.476074,2015-09-25,PPG,0.0026103268795323303,0.00261031662001687
553538,559492,87.5,87.83000200000001,84.400002,84.510002,2321800.0,78.900314,2015-09-28,PPG,-0.0433551189645618,-0.0433551525177791
553539,559493,84.690002,86.32,84.5,85.949997,2483700.0,80.24472800000001,2015-09-29,PPG,0.0170393998685481,0.017039344053027
553540,559494,87.089996,88.220001,86.949997,87.690002,2928400.0,81.869232,2015-09-30,PPG,0.0202443704463675,0.0202443869776983
553541,559495,82.93,90.18,82.93,90.129997,3581500.0,84.147255,2015-10-01,PPG,0.0278251419287774,0.0278252359944067
553542,559496,89.050003,92.720001,88.349998,92.660004,2322000.0,86.509315,2015-10-02,PPG,0.0280705532224432,0.0280706433397528
553543,559497,93.440002,94.849998,93.199997,94.589996,1973100.0,88.311211,2015-10-05,PPG,0.0208289246077142,0.0208287493706563
553544,559498,94.610001,95.199997,93.25,93.400002,2351700.0,87.200203,2015-10-06,PPG,-0.0125805997609975,-0.0125805481586023
553545,559499,92.900002,94.339996,92.480003,94.309998,2207500.0,88.049789,2015-10-07,PPG,0.00974293603422005,0.00974299765004272
553546,559500,94.16999799999999,95.989998,93.790001,95.769997,1293600.0,89.412888,2015-10-08,PPG,0.0154810024587337,0.0154808507153188
553547,559501,95.699997,96.459999,95.010002,95.970001,1695300.0,89.599602,2015-10-09,PPG,0.00208822244954221,0.00208837847201759
553548,559502,96.660004,97.709999,96.010002,97.339996,1818700.0,90.878654,2015-10-12,PPG,0.014275197338488001,0.0142752421144603
553549,559503,96.540001,98.050003,95.870003,97.18,2226700.0,90.729286,2015-10-13,PPG,-0.0016435982865679,-0.00164368200713705
553550,559504,96.849998,98.230003,96.760002,97.32,2241800.0,90.859993,2015-10-14,PPG,0.0014406263485859901,0.0014406256431363
553551,559505,97.809998,99.379997,96.309998,99.260002,3253600.0,92.671227,2015-10-15,PPG,0.0199343400785865,0.0199342581175503
553552,559506,100.199997,103.260002,99.989998,100.739998,3795600.0,94.052986,2015-10-16,PPG,0.0149103345745061,0.0149102958913905
553553,559507,100.029999,101.279999,99.400002,101.18,1295800.0,94.46376,2015-10-19,PPG,0.00436747430857731,0.00436769911391122
553554,559508,101.16999799999999,102.400002,100.75,101.379997,1435700.0,94.650497,2015-10-20,PPG,0.00197681100138314,0.00197664558213084
553555,559509,101.720001,101.849998,100.0,100.639999,1977600.0,93.959618,2015-10-21,PPG,-0.0072992643662505,-0.00729925056123248
553556,559510,101.599998,104.0,101.339996,103.620003,2496900.0,96.741798,2015-10-22,PPG,0.0296103800677436,0.0296105328856371
553557,559511,104.5,104.879997,103.730003,103.989998,1546600.0,97.087242,2015-10-23,PPG,0.00357078333400418,0.00357069088291762
553558,559512,104.099998,104.480003,103.41999799999999,103.93,1279200.0,97.031212,2015-10-26,PPG,-0.000577109812224474,-0.000576959334108174
553559,559513,103.470001,104.190002,102.629997,102.93,1315200.0,96.09761,2015-10-27,PPG,-0.009621666892092321,-0.00962186086789185
553560,559514,103.470001,104.349998,102.709999,104.33000200000001,1040500.0,97.404663,2015-10-28,PPG,0.013601306005425,0.0136014961624404
553561,559515,104.400002,104.66999799999999,103.58000200000001,104.279999,1099800.0,97.357979,2015-10-29,PPG,-0.000479278902694835,-0.000479277284016422
553562,559516,104.58000200000001,104.779999,103.68,104.260002,1519900.0,97.33931700000001,2015-10-30,PPG,-0.000191684340530629,-0.000191762564171083
553563,559517,104.220001,104.690002,103.360001,104.0,1457200.0,97.09657299999999,2015-11-02,PPG,-0.00249379189706034,-0.00249378472100936
553564,559518,104.050003,104.790001,103.660004,104.190002,1012600.0,97.273979,2015-11-03,PPG,0.0018271087693280102,0.0018269423076924301
553565,559519,104.650002,104.720001,103.790001,103.860001,730400.0,96.965866,2015-11-04,PPG,-0.00316747606263734,-0.00316730006397359
553566,559520,103.720001,104.010002,102.440002,103.209999,910000.0,96.359024,2015-11-05,PPG,-0.00625830537108796,-0.006258443999052179
553567,559521,102.489998,103.260002,101.83000200000001,103.0,1012100.0,96.499557,2015-11-06,PPG,0.00145843112732225,-0.00203467689211001
553568,559522,102.709999,102.769997,100.75,101.730003,893100.0,95.309708,2015-11-09,PPG,-0.0123300980542325,-0.0123300679611651
553569,559523,101.389999,101.849998,100.379997,101.120003,1316200.0,94.73819,2015-11-10,PPG,-0.0059964300803439,-0.00599626444520995
553570,559524,101.510002,101.970001,100.849998,101.610001,1010800.0,95.19725799999999,2015-11-11,PPG,0.00484564883496308,0.0048457079258590295
553571,559525,100.610001,101.120003,99.209999,99.209999,1903900.0,92.948738,2015-11-12,PPG,-0.0236195878667009,-0.0236197419189081
553572,559526,99.339996,101.480003,98.860001,100.83000200000001,1938300.0,94.466507,2015-11-13,PPG,0.0163290974429366,0.0163290294963112
553573,559527,100.910004,102.120003,100.230003,101.949997,1766600.0,95.515816,2015-11-16,PPG,0.0111077357819529,0.0111077554079588
553574,559528,101.900002,103.059998,101.449997,101.709999,1381100.0,95.29097,2015-11-17,PPG,-0.0023540185219168602,-0.0023540755964907
553575,559529,101.809998,104.519997,101.550003,104.230003,2128300.0,97.65193199999999,2015-11-18,PPG,0.0247763455445988,0.0247763644162458
553576,559530,104.230003,104.57,102.879997,103.370003,1252200.0,96.84620699999999,2015-11-19,PPG,-0.008250988828362279,-0.008250983164607591
553577,559531,103.5,105.08000200000001,103.309998,104.620003,1761000.0,98.01731099999999,2015-11-20,PPG,0.0120924095664376,0.0120924829614255
553578,559532,105.0,106.029999,104.290001,105.470001,1999700.0,98.81366,2015-11-23,PPG,0.00812457505593067,0.00812462221015231
553579,559533,104.529999,106.040001,104.529999,105.489998,1159600.0,98.832413,2015-11-24,PPG,0.000189781453292959,0.000189598936289004
553580,559534,105.910004,106.760002,105.379997,106.459999,1152300.0,99.741188,2015-11-25,PPG,0.00919511091973435,0.00919519403157065
553581,559535,106.279999,106.68,105.540001,106.209999,491600.0,99.506966,2015-11-27,PPG,-0.0023482976761816103,-0.00234829985298046
553582,559536,106.360001,106.489998,105.120003,105.739998,1560400.0,99.06662800000001,2015-11-30,PPG,-0.00442519772937311,-0.0044252048246417
553583,559537,106.389999,106.870003,105.82,106.760002,1008300.0,100.022263,2015-12-01,PPG,0.00964638667221007,0.009646340261894041
553584,559538,106.199997,106.739998,105.08000200000001,105.339996,996000.0,98.691872,2015-12-02,PPG,-0.0133009488097664,-0.0133009176976224
553585,559539,105.400002,105.989998,103.91999799999999,104.300003,1131600.0,97.717506,2015-12-03,PPG,-0.00987280897863607,-0.00987272678461082
553586,559540,104.510002,106.370003,104.370003,105.959999,1079800.0,99.272736,2015-12-04,PPG,0.0159155719754043,0.0159155891874709
553587,559541,105.269997,105.860001,104.279999,104.989998,1000700.0,98.36395300000001,2015-12-07,PPG,-0.009154406704374509,-0.00915440740991325
553588,559542,103.91999799999999,104.529999,102.660004,102.75,1568200.0,96.265335,2015-12-08,PPG,-0.0213352344633811,-0.0213353466298761
553589,559543,102.75,103.58000200000001,100.589996,101.550003,2035900.0,95.141075,2015-12-09,PPG,-0.0116787626615541,-0.011678802919708
553590,559544,101.33000200000001,101.739998,100.510002,100.879997,1651600.0,94.513329,2015-12-10,PPG,-0.0065980545206159,-0.006597793995141489
553591,559545,100.879997,100.879997,98.410004,98.730003,1783100.0,92.49904599999999,2015-12-11,PPG,-0.0213121579920224,-0.0213123915933503
553592,559546,98.559998,98.959999,96.879997,97.730003,2216300.0,91.562157,2015-12-14,PPG,-0.0101286341915354,-0.0101286333395533
553593,559547,98.720001,99.41999799999999,98.470001,98.550003,1258100.0,92.330399,2015-12-15,PPG,0.00839038774501577,0.00839046326438786
553594,559548,99.18,100.33000200000001,98.529999,100.220001,1585800.0,93.895012,2015-12-16,PPG,0.0169458056820484,0.0169456920260063
553595,559549,100.529999,100.660004,98.16999799999999,98.239998,1583900.0,92.039955,2015-12-17,PPG,-0.019756715085142,-0.0197565653586453
553596,559550,97.989998,98.199997,96.25,96.290001,1808000.0,90.21302,2015-12-18,PPG,-0.0198493686790699,-0.0198493184008411
553597,559551,96.91999799999999,97.370003,96.489998,97.230003,1202200.0,91.093719,2015-12-21,PPG,0.00976243783879527,0.009762197426916641
553598,559552,97.900002,99.160004,97.559998,98.760002,887300.0,92.527153,2015-12-22,PPG,0.0157358159896843,0.0157358732160073
553599,559553,99.379997,100.519997,99.239998,100.239998,828000.0,93.913719,2015-12-23,PPG,0.0149855037688233,0.0149857834146256
553600,559554,99.940002,100.790001,99.940002,100.389999,371800.0,94.05426800000001,2015-12-24,PPG,0.00149657580912099,0.00149641862522776
553601,559555,100.199997,100.33000200000001,99.41999799999999,99.900002,680700.0,93.595192,2015-12-28,PPG,-0.00488096935696736,-0.004880934404631329
553602,559556,100.82,100.940002,99.949997,100.58000200000001,676300.0,94.232277,2015-12-29,PPG,0.00680681332434263,0.0068068066705342396
553603,559557,100.33000200000001,100.709999,99.709999,99.769997,730400.0,93.473396,2015-12-30,PPG,-0.00805330216099953,-0.00805334046424044
553604,559558,99.379997,100.0,98.790001,98.82,895400.0,92.583366,2015-12-31,PPG,-0.009521746701061321,-0.00952187058800869
553605,559559,97.269997,97.989998,96.059998,97.959999,1636400.0,91.77763399999999,2016-01-04,PPG,-0.00870277280694232,-0.00870270188221001
553606,559560,98.629997,99.32,97.470001,98.309998,1401500.0,92.10554499999999,2016-01-05,PPG,0.00357288574251102,0.0035728767208338397
553607,559561,96.440002,97.199997,95.93,96.470001,1809300.0,90.381676,2016-01-06,PPG,-0.0187162347283218,-0.0187162754290768
553608,559562,95.07,97.139999,94.68,95.25,2597600.0,89.238647,2016-01-07,PPG,-0.0126466895789805,-0.012646428810548
553609,559563,95.68,96.639999,94.16999799999999,94.489998,1979300.0,88.526627,2016-01-08,PPG,-0.00797883006899458,-0.00797902362204728
553610,559564,94.839996,95.720001,93.730003,94.449997,2187200.0,88.489136,2016-01-11,PPG,-0.00042349970026534,-0.00042333581169096097
553611,559565,95.33000200000001,95.559998,93.790001,95.120003,1320700.0,89.116875,2016-01-12,PPG,0.007093966879730741,0.0070937641215593795
553612,559566,95.980003,96.239998,93.010002,93.050003,2119900.0,87.177513,2016-01-13,PPG,-0.0217620063540153,-0.0217619841748743
553613,559567,93.290001,94.120003,91.599998,93.57,2300200.0,87.664688,2016-01-14,PPG,0.00558831037081764,0.00558836091601189
553614,559568,91.639999,92.349998,90.339996,91.900002,2052800.0,86.100075,2016-01-15,PPG,-0.0178476994066299,-0.0178475793523565
553615,559569,92.800003,93.25,89.900002,91.599998,3318000.0,85.819016,2016-01-19,PPG,-0.00326432932840071,-0.00326446130001179
553616,559570,90.449997,94.690002,90.019997,93.519997,4935200.0,87.61784399999999,2016-01-20,PPG,0.020960715746263,0.0209606882305828
553617,559571,93.0,94.66999799999999,90.610001,91.91999799999999,4310700.0,86.11882800000001,2016-01-21,PPG,-0.0171085698022884,-0.0171086297190536
553618,559572,92.790001,94.809998,92.33000200000001,93.160004,1860700.0,87.280579,2016-01-22,PPG,0.013490093014271001,0.0134900568644485
553619,559573,92.809998,93.32,90.93,91.110001,1623200.0,85.359932,2016-01-25,PPG,-0.0220054337632202,-0.022005183683762
553620,559574,91.480003,93.290001,91.110001,92.58000200000001,1236800.0,86.737175,2016-01-26,PPG,0.0161345372205779,0.0161343539004022
553621,559575,92.43,94.239998,91.900002,92.800003,1887400.0,86.943298,2016-01-27,PPG,0.0023764089619013897,0.0023763339300857398
553622,559576,93.290001,94.040001,91.980003,92.089996,2347300.0,86.278099,2016-01-28,PPG,-0.0076509520032239705,-0.00765093725266375
553623,559577,92.720001,95.139999,92.279999,95.120003,2365400.0,89.116875,2016-01-29,PPG,0.0329026257289233,0.0329026727289683
553624,559578,93.709999,95.900002,93.25,95.589996,1748400.0,89.55720500000001,2016-02-01,PPG,0.00494103950570524,0.0049410532503873
553625,559579,94.970001,94.970001,92.660004,93.040001,1636000.0,87.168137,2016-02-02,PPG,-0.0266764466354213,-0.0266763793985303
553626,559580,94.290001,95.150002,91.870003,95.110001,1831600.0,89.10752099999999,2016-02-03,PPG,0.022248771933717,0.022248495031723
553627,559581,95.33000200000001,96.32,94.599998,95.699997,1457500.0,89.660263,2016-02-04,PPG,0.00620309030929045,0.00620330137521496
553628,559582,95.309998,95.83000200000001,92.709999,92.870003,1544400.0,87.008873,2016-02-05,PPG,-0.0295715170944792,-0.0295715160785219
553629,559583,92.209999,92.279999,88.860001,89.650002,1926800.0,83.992081,2016-02-08,PPG,-0.0346722339456115,-0.03467213196924299
553630,559584,88.620003,91.68,88.370003,90.989998,1567200.0,85.247513,2016-02-09,PPG,0.0149470281609048,0.0149469712225996
553631,559585,91.66999799999999,93.209999,91.040001,91.339996,1240200.0,85.57543199999999,2016-02-10,PPG,0.00384666940371625,0.00384655465098471
553632,559586,89.349998,90.730003,88.470001,89.269997,1796500.0,83.63606300000001,2016-02-11,PPG,-0.0226626843087396,-0.0226625694181112
553633,559587,90.059998,92.139999,89.620003,91.779999,1438700.0,85.98764,2016-02-12,PPG,0.028116782589348,0.0281169719317902
553634,559588,93.059998,93.769997,91.779999,93.620003,1198900.0,87.71154,2016-02-16,PPG,0.0200482301875013,0.0200479845287425
553635,559589,94.309998,95.449997,93.010002,95.0,1850200.0,89.348015,2016-02-17,PPG,0.0186574651408469,0.0147404075601236
553636,559590,95.199997,95.58000200000001,94.139999,94.690002,1506400.0,89.05645,2016-02-18,PPG,-0.00326325100787084,-0.00326313684210522
553637,559591,94.660004,95.739998,93.68,95.629997,1592300.0,89.940529,2016-02-19,PPG,0.009927175403915191,0.00992707762325318
553638,559592,96.870003,98.0,95.860001,96.720001,1291100.0,90.965675,2016-02-22,PPG,0.011398042811155999,0.0113981390169864
553639,559593,96.540001,96.660004,94.699997,94.870003,1260300.0,89.225761,2016-02-23,PPG,-0.0191271487844178,-0.0191273571223392
553640,559594,93.610001,95.809998,92.949997,95.68,815200.0,89.98755600000001,2016-02-24,PPG,0.00853783695944044,0.0085379674753463
553641,559595,96.110001,97.059998,94.559998,97.010002,1036800.0,91.238411,2016-02-25,PPG,0.0139003108385343,0.0139005225752509
553642,559596,97.730003,98.449997,97.360001,98.160004,1079000.0,92.320015,2016-02-26,PPG,0.0118547000999392,0.0118544683670865
553643,559597,97.970001,98.839996,96.489998,96.529999,1430900.0,90.78699499999999,2016-02-29,PPG,-0.0166054999016193,-0.016605592232861
553644,559598,97.550003,100.489998,96.91999799999999,99.58000200000001,1503400.0,93.655525,2016-03-01,PPG,0.0315962655223911,0.0315964263088824
553645,559599,99.220001,99.739998,98.43,99.33000200000001,945100.0,93.42041,2016-03-02,PPG,-0.00251042317044292,-0.0025105442355785
553646,559600,98.959999,100.75,98.230003,100.300003,1921700.0,94.33270300000001,2016-03-03,PPG,0.00976545703449583,0.00976543824090537
553647,559601,100.66999799999999,102.93,100.32,102.489998,2072600.0,96.392387,2016-03-04,PPG,0.0218342519030754,0.0218344460069457
553648,559602,101.839996,103.449997,101.639999,103.370003,1649000.0,97.220039,2016-03-07,PPG,0.00858627974427062,0.008586252484852121
553649,559603,102.379997,102.650002,101.349998,101.510002,1280000.0,95.470711,2016-03-08,PPG,-0.0179934920618579,-0.0179936243205875
553650,559604,102.199997,102.709999,101.379997,102.279999,1147500.0,96.194878,2016-03-09,PPG,0.007585226845121309,0.0075854298574440406
553651,559605,102.599998,104.220001,101.839996,102.910004,901500.0,96.787399,2016-03-10,PPG,0.00615958991080578,0.0061596109323387395
553652,559606,104.150002,105.230003,103.779999,105.010002,1479600.0,98.762474,2016-03-11,PPG,0.0204063237612162,0.0204061599297964
553653,559607,104.339996,105.099998,104.0,104.739998,878700.0,98.508545,2016-03-14,PPG,-0.00257110813161687,-0.00257122173943014
553654,559608,103.949997,104.949997,103.620003,104.760002,819300.0,98.527344,2016-03-15,PPG,0.000190836236592551,0.000190987210062721
553655,559609,104.220001,106.66999799999999,104.129997,106.610001,1122600.0,100.267288,2016-03-16,PPG,0.0176595037414182,0.0176594021065406
553656,559610,106.900002,109.709999,106.900002,109.400002,1789700.0,102.891296,2016-03-17,PPG,0.0261701303819049,0.0261701620282322
553657,559611,109.620003,110.58000200000001,108.050003,108.900002,2628400.0,102.421036,2016-03-18,PPG,-0.0045704546281543105,-0.00457038382869501
553658,559612,109.620003,110.529999,108.279999,108.889999,2170300.0,102.411644,2016-03-21,PPG,-9.169991211577241e-05,-9.185491107699399e-05
553659,559613,108.800003,110.199997,108.559998,109.839996,1663300.0,103.305122,2016-03-22,PPG,0.00872437903643064,0.00872437330080245
553660,559614,108.910004,109.68,108.129997,109.139999,1222300.0,102.646759,2016-03-23,PPG,-0.00637299474850817,-0.0063728789647806705
553661,559615,108.199997,109.059998,107.379997,108.949997,1386000.0,102.468063,2016-03-24,PPG,-0.00174088302193742,-0.00174090161023377
553662,559616,109.389999,109.610001,108.739998,109.400002,1043300.0,102.891296,2016-03-28,PPG,0.00413038938776467,0.0041303810224060395
553663,559617,108.800003,110.589996,108.610001,110.57,1026300.0,103.99168399999999,2016-03-29,PPG,0.0106946655623816,0.0106946798776109
553664,559618,111.0,112.099998,110.730003,111.900002,1636800.0,105.24256100000001,2016-03-30,PPG,0.0120286252889221,0.0120285972686986
553665,559619,111.900002,112.08000200000001,111.129997,111.489998,1438900.0,104.856934,2016-03-31,PPG,-0.0036641734706550602,-0.00366402138223376
553666,559620,110.440002,113.290001,110.220001,113.110001,1453000.0,106.380569,2016-04-01,PPG,0.0145306079615106,0.0145304783304419
553667,559621,113.150002,113.230003,111.629997,112.190002,1390500.0,105.51531200000001,2016-04-04,PPG,-0.00813360003742791,-0.00813366627058898
553668,559622,111.489998,112.040001,110.910004,111.43,1319200.0,104.800507,2016-04-05,PPG,-0.00677441962167535,-0.00677424000758997
553669,559623,111.370003,112.199997,110.639999,112.08000200000001,812100.0,105.41185800000001,2016-04-06,PPG,0.00583347368729803,0.0058332764964550395
553670,559624,111.349998,111.83000200000001,110.08000200000001,110.610001,921200.0,104.029312,2016-04-07,PPG,-0.0131156591509846,-0.0131156403798065
553671,559625,111.029999,112.139999,111.029999,111.83000200000001,712000.0,105.176704,2016-04-08,PPG,0.0110295067605561,0.0110297530871553
553672,559626,112.07,112.839996,111.589996,111.68,887100.0,105.035645,2016-04-11,PPG,-0.00134116201245471,-0.00134133950923099
553673,559627,112.089996,113.16999799999999,111.360001,112.940002,871300.0,106.220688,2016-04-12,PPG,0.0112822937394252,0.0112822528653296
553674,559628,113.41999799999999,114.290001,112.739998,114.230003,1062900.0,107.433945,2016-04-13,PPG,0.0114220404974217,0.0114220026310961
553675,559629,113.739998,114.589996,113.739998,114.510002,1070100.0,107.697281,2016-04-14,PPG,0.00245114335138674,0.00245118613889916
553676,559630,114.690002,115.400002,114.389999,115.349998,1284900.0,108.48731200000002,2016-04-15,PPG,0.007335663376682571,0.007335568817822491
553677,559631,115.0,115.93,114.639999,115.75,1543200.0,108.86350300000001,2016-04-18,PPG,0.00346760365857346,0.0034677243774203803
553678,559632,116.239998,116.800003,115.769997,116.550003,1466600.0,109.61591299999999,2016-04-19,PPG,0.00691149907237509,0.00691147300215977
553679,559633,116.849998,117.0,115.550003,116.07,1593700.0,109.16445900000001,2016-04-20,PPG,-0.00411850786664536,-0.0041184297524214895
553680,559634,111.699997,113.0,110.099998,110.260002,3641300.0,103.700127,2016-04-21,PPG,-0.0500559618950707,-0.0500559834582579
553681,559635,111.349998,113.389999,110.779999,113.190002,2145500.0,106.45581100000001,2016-04-22,PPG,0.0265735836562668,0.0265735529371749
553682,559636,113.0,113.300003,111.970001,112.599998,951000.0,105.90090900000001,2016-04-25,PPG,-0.00521251019354874,-0.00521250984693866
553683,559637,113.370003,113.910004,113.010002,113.550003,1525900.0,106.794395,2016-04-26,PPG,0.0084370002905263,0.008436989492664141
553684,559638,113.889999,114.650002,112.589996,112.989998,1246900.0,106.267693,2016-04-27,PPG,-0.00493192550039734,-0.004931792031744871
553685,559639,111.889999,113.400002,111.529999,112.769997,1617400.0,106.060791,2016-04-28,PPG,-0.00194698872403298,-0.0019470838471914399
553686,559640,112.400002,112.730003,109.75,110.389999,2308500.0,103.822395,2016-04-29,PPG,-0.0211048397706179,-0.0211048866127043
553687,559641,110.18,111.25,109.040001,111.239998,1390100.0,104.621826,2016-05-02,PPG,0.007699986115712321,0.007699963834586041
553688,559642,110.089996,110.220001,109.019997,109.5,1303300.0,102.985359,2016-05-03,PPG,-0.0156417361708062,-0.0156418377497634
553689,559643,108.510002,109.360001,108.0,108.589996,1062100.0,102.129478,2016-05-04,PPG,-0.008310705602337041,-0.00831053881278543
553690,559644,109.040001,109.529999,108.230003,108.58000200000001,810200.0,102.120079,2016-05-05,PPG,-9.2030236363283e-05,-9.203426068826741e-05
553691,559645,107.699997,108.309998,107.18,108.309998,1172300.0,102.242798,2016-05-06,PPG,0.00120171274054726,-0.0024866825845150102
553692,559646,108.139999,108.230003,107.290001,107.440002,1046600.0,101.421532,2016-05-09,PPG,-0.00803250709159964,-0.00803246252483525
553693,559647,107.800003,108.83000200000001,107.260002,108.730003,817500.0,102.639267,2016-05-10,PPG,0.0120066713249807,0.012006710498758
553694,559648,108.739998,109.199997,107.379997,107.41999799999999,1623300.0,101.402641,2016-05-11,PPG,-0.0120482738833277,-0.0120482384241265
553695,559649,108.230003,108.550003,106.360001,107.489998,1130300.0,101.468727,2016-05-12,PPG,0.000651718725945161,0.000651647749984052
553696,559650,107.57,108.07,106.470001,106.699997,1547600.0,100.72296899999999,2016-05-13,PPG,-0.00734963394189414,-0.00734953032560293
553697,559651,107.190002,108.639999,107.089996,108.160004,1488600.0,102.10120400000001,2016-05-16,PPG,0.0136834230928995,0.0136832899817232
553698,559652,107.82,108.269997,106.690002,107.010002,1227000.0,101.015617,2016-05-17,PPG,-0.0106324603184894,-0.0106324145476178
553699,559653,106.93,107.790001,106.07,106.389999,1755100.0,100.430351,2016-05-18,PPG,-0.0057938170095026605,-0.00579387896843508
553700,559654,106.0,106.650002,104.959999,105.639999,1153900.0,99.722359,2016-05-19,PPG,-0.00704958205313855,-0.0070495347969690095
553701,559655,106.379997,107.029999,105.93,106.209999,906300.0,100.260452,2016-05-20,PPG,0.00539591126198702,0.0053956835043134106
553702,559656,106.190002,106.83000200000001,105.800003,106.43,1485400.0,100.468109,2016-05-23,PPG,0.00207117558177372,0.00207137747925223
553703,559657,106.57,108.150002,106.459999,107.760002,1084700.0,101.723618,2016-05-24,PPG,0.0124965923266258,0.0124964953490556
553704,559658,108.260002,108.730003,107.699997,108.32,800600.0,102.25222,2016-05-25,PPG,0.00519645300071803,0.00519671482559914
553705,559659,108.349998,109.0,107.589996,107.699997,685700.0,101.666977,2016-05-26,PPG,-0.005723523655525421,-0.0057238090841949
553706,559660,107.959999,108.709999,107.300003,108.599998,732400.0,102.51655600000001,2016-05-27,PPG,0.00835648924625731,0.008356555478826971
553707,559661,108.650002,108.870003,107.199997,107.68,1807500.0,101.64807900000001,2016-05-31,PPG,-0.00847157799565568,-0.00847143662010008
553708,559662,107.68,108.209999,106.489998,107.980003,998400.0,101.93129,2016-06-01,PPG,0.0027861913652103,0.00278606054977693
553709,559663,107.360001,108.199997,106.889999,108.199997,759900.0,102.138954,2016-06-02,PPG,0.00203729394575491,0.0020373587135389397
553710,559664,108.07,108.16999799999999,106.860001,107.66999799999999,1338700.0,101.638641,2016-06-03,PPG,-0.00489835640964165,-0.00489832730771689
553711,559665,108.099998,108.870003,107.68,108.120003,935900.0,102.063438,2016-06-06,PPG,0.00417948327349249,0.004179483684953579
553712,559666,108.150002,108.360001,107.370003,107.769997,1238100.0,101.733032,2016-06-07,PPG,-0.00323726112381217,-0.00323719931824262
553713,559667,108.059998,111.260002,107.510002,110.949997,1908000.0,104.73490100000001,2016-06-08,PPG,0.0295073187241681,0.0295072848522024
553714,559668,110.209999,110.489998,109.519997,110.43,2689500.0,104.244026,2016-06-09,PPG,-0.00468683309301055,-0.0046867689415078795
553715,559669,109.769997,109.860001,108.769997,109.239998,1255800.0,103.120689,2016-06-10,PPG,-0.0107760323838606,-0.0107760753418455
553716,559670,108.940002,109.25,107.610001,107.690002,1285700.0,101.657516,2016-06-13,PPG,-0.0141889373916033,-0.0141889054227188
553717,559671,107.309998,107.849998,106.43,107.08000200000001,1221800.0,101.081696,2016-06-14,PPG,-0.005664313104010939,-0.00566440698923953
553718,559672,107.300003,107.639999,106.5,106.620003,1056500.0,100.647469,2016-06-15,PPG,-0.00429580247644434,-0.00429584414837791
553719,559673,105.620003,107.010002,105.059998,106.959999,843400.0,100.968407,2016-06-16,PPG,0.00318873393627017,0.00318885753548526
553720,559674,107.0,108.260002,106.629997,108.18,1807100.0,102.120087,2016-06-17,PPG,0.01140634020303,0.0114061425898107
553721,559675,109.279999,109.730003,108.32,108.41999799999999,1227900.0,102.346642,2016-06-20,PPG,0.0022185155404344,0.00221850619338149
553722,559676,108.650002,108.650002,107.83000200000001,108.059998,1346300.0,102.006798,2016-06-21,PPG,-0.00332051929949984,-0.00332042064785887
553723,559677,108.400002,108.400002,107.660004,107.809998,1219400.0,101.770813,2016-06-22,PPG,-0.0023134242484506,-0.00231352956345598
553724,559678,109.699997,111.260002,109.440002,111.220001,2078300.0,104.98978400000001,2016-06-23,PPG,0.0316296087759464,0.0316297473635052
553725,559679,108.089996,108.089996,102.209999,102.730003,3821500.0,96.975365,2016-06-24,PPG,-0.0763352270540913,-0.0763351728435967
553726,559680,101.410004,101.470001,98.08000200000001,98.690002,3445900.0,93.16169000000001,2016-06-27,PPG,-0.0393262247582157,-0.0393263981506941
553727,559681,99.949997,100.559998,98.41999799999999,100.559998,1941300.0,94.926926,2016-06-28,PPG,0.0189480890696594,0.018948180789376996
553728,559682,101.940002,102.720001,101.57,102.489998,1582800.0,96.748802,2016-06-29,PPG,0.0191924049031147,0.0191925222591991
553729,559683,102.57,104.150002,101.989998,104.150002,2193000.0,98.315842,2016-06-30,PPG,0.0161969964237905,0.0161967414615425
553730,559684,104.150002,105.489998,104.07,104.519997,1334300.0,98.665092,2016-07-01,PPG,0.0035523267959196602,0.00355252033504527
553731,559685,103.91999799999999,103.93,101.800003,102.650002,1898800.0,96.899849,2016-07-05,PPG,-0.017891261886220002,-0.0178912653432243
553732,559686,102.199997,103.019997,101.720001,102.970001,1451500.0,97.201912,2016-07-06,PPG,0.00311727007954365,0.0031173793839769396
553733,559687,103.279999,103.779999,102.529999,103.029999,1547900.0,97.25856800000001,2016-07-07,PPG,0.00058286919294348,0.000582674559748808
553734,559688,104.18,106.610001,103.980003,106.32,1649100.0,100.364265,2016-07-08,PPG,0.031932374328193,0.0319324568759822
553735,559689,106.629997,107.040001,106.41999799999999,106.610001,892200.0,100.638023,2016-07-11,PPG,0.00272764414704785,0.00272762415349881
553736,559690,107.550003,109.5,107.309998,108.699997,1404000.0,102.610954,2016-07-12,PPG,0.0196042305004342,0.0196041270086846
553737,559691,109.099998,109.550003,107.959999,109.470001,1238500.0,103.337814,2016-07-13,PPG,0.00708364917842963,0.0070837536453658406
553738,559692,109.809998,109.989998,108.349998,108.629997,1359100.0,102.544876,2016-07-14,PPG,-0.007673260825896591,-0.007673371629913441
553739,559693,109.019997,109.480003,108.139999,109.269997,1341000.0,103.149017,2016-07-15,PPG,0.00589147916079202,0.00589155866404001
553740,559694,109.0,109.5,108.610001,109.300003,870100.0,103.177353,2016-07-18,PPG,0.00027470935568874,0.00027460419899161297
553741,559695,108.639999,108.980003,107.769997,108.379997,1424200.0,102.30888399999999,2016-07-19,PPG,-0.00841724443153713,-0.00841725502971857
553742,559696,108.790001,110.139999,108.480003,110.029999,2360900.0,103.86644,2016-07-20,PPG,0.0152240542473319,0.0152242299840624
553743,559697,109.0,110.129997,107.559998,108.589996,2133100.0,102.507111,2016-07-21,PPG,-0.0130872782392465,-0.0130873672006486
553744,559698,108.589996,108.589996,107.309998,107.650002,1708800.0,101.619766,2016-07-22,PPG,-0.00865642384556131,-0.00865635909959883
553745,559699,107.230003,107.349998,106.400002,106.589996,1670800.0,100.619148,2016-07-25,PPG,-0.00984668671644062,-0.00984678105254477
553746,559700,107.07,107.07,106.18,106.760002,2284800.0,100.779625,2016-07-26,PPG,0.0015948952380315802,0.0015949526820509
553747,559701,106.870003,106.870003,105.760002,106.089996,1627400.0,100.147141,2016-07-27,PPG,-0.00627591142554851,-0.0062758147943834395
553748,559702,105.720001,106.32,104.82,105.480003,2163000.0,99.571342,2016-07-28,PPG,-0.00574953008393919,-0.0057497692807906295
553749,559703,104.989998,105.230003,103.739998,104.709999,2107700.0,98.84446,2016-07-29,PPG,-0.00730011251631024,-0.0072999997923777205
553750,559704,104.099998,105.059998,103.739998,104.66999799999999,1641900.0,98.806694,2016-08-01,PPG,-0.00038207502979936697,-0.000382017002979684
553751,559705,104.879997,104.879997,103.349998,103.690002,1473500.0,97.881615,2016-08-02,PPG,-0.0093625134345654,-0.00936272111135417
553752,559706,104.129997,104.379997,102.870003,104.33000200000001,2415800.0,98.485733,2016-08-03,PPG,0.00617192513629861,0.00617224407035866
553753,559707,104.300003,104.82,103.849998,104.099998,1282200.0,98.26861600000001,2016-08-04,PPG,-0.0022045528157870198,-0.00220458157376435
553754,559708,104.610001,104.989998,104.349998,104.43,1063100.0,98.58013199999999,2016-08-05,PPG,0.00317004566340917,0.00317004809164367
553755,559709,104.449997,104.699997,104.050003,104.480003,1210900.0,99.006561,2016-08-08,PPG,0.00432570936301846,0.000478818347218191
553756,559710,104.349998,105.199997,104.190002,104.370003,1044600.0,98.902336,2016-08-09,PPG,-0.00105270801194679,-0.0010528330478704099
553757,559711,104.690002,105.07,104.089996,104.690002,1102400.0,99.205574,2016-08-10,PPG,0.00306603475978551,0.00306600546902369
553758,559712,104.82,105.379997,104.43,104.739998,1096100.0,99.25296,2016-08-11,PPG,0.00047765461243143303,0.00047756231774642694
553759,559713,104.610001,104.870003,103.709999,103.989998,977600.0,98.542252,2016-08-12,PPG,-0.00716057233960576,-0.007160588259701891
553760,559714,104.129997,104.75,104.019997,104.459999,1037100.0,98.987617,2016-08-15,PPG,0.0045195334078624895,0.00451967505567219
553761,559715,104.510002,105.360001,103.650002,103.650002,1287100.0,98.220047,2016-08-16,PPG,-0.007754202225112691,-0.0077541356285098
553762,559716,103.660004,104.029999,102.900002,103.589996,1242200.0,98.1632,2016-08-17,PPG,-0.000578771867213557,-0.0005789290771069929
553763,559717,103.589996,103.959999,103.360001,103.769997,1036900.0,98.33375500000001,2016-08-18,PPG,0.00173746373386363,0.00173762918187581
553764,559718,103.220001,104.860001,103.220001,104.730003,1089900.0,99.243484,2016-08-19,PPG,0.00925144168449576,0.0092512867664436
553765,559719,104.43,105.279999,104.0,105.209999,1148500.0,99.698334,2016-08-22,PPG,0.00458317243276141,0.0045831756540673
553766,559720,105.870003,106.769997,105.599998,106.440002,1341700.0,100.863899,2016-08-23,PPG,0.0116909175232558,0.0116909325319927
553767,559721,106.279999,107.120003,106.0,106.389999,1808400.0,100.816513,2016-08-24,PPG,-0.00046980139048569103,-0.000469776391022636
553768,559722,106.099998,107.190002,106.050003,106.75,914100.0,101.157646,2016-08-25,PPG,0.0033837016362587803,0.0033837861019248
553769,559723,106.970001,107.650002,105.410004,105.75,929700.0,100.210022,2016-08-26,PPG,-0.00936779410624089,-0.00936768149882905
553770,559724,105.910004,107.889999,105.910004,107.599998,1301700.0,101.963104,2016-08-29,PPG,0.0174940785862716,0.0174940709219857
553771,559725,107.349998,107.699997,106.66999799999999,107.279999,1036500.0,101.659874,2016-08-30,PPG,-0.00297391887951937,-0.00297396845676512
553772,559726,107.08000200000001,107.08000200000001,105.43,105.879997,1392300.0,100.333221,2016-08-31,PPG,-0.0130499178072954,-0.0130499814788403
553773,559727,106.019997,106.300003,105.089996,105.980003,929600.0,100.427994,2016-09-01,PPG,0.00094458245290463,0.000944522127253045
553774,559728,106.739998,107.07,106.32,107.040001,662700.0,101.432457,2016-09-02,PPG,0.0100018227985317,0.0100018679939082
553775,559729,107.370003,107.970001,107.010002,107.620003,1320400.0,101.982063,2016-09-06,PPG,0.005418443132063629,0.00541855376103739
553776,559730,107.239998,107.790001,106.41999799999999,106.730003,1337900.0,101.138695,2016-09-07,PPG,-0.00826976798851375,-0.008269838089486
553777,559731,106.540001,106.879997,105.279999,105.300003,1042400.0,99.7836,2016-09-08,PPG,-0.0133983832795153,-0.0133982943858812
553778,559732,104.58000200000001,104.58000200000001,100.760002,100.860001,2339500.0,95.57621,2016-09-09,PPG,-0.0421651453745906,-0.0421652599573051
553779,559733,100.480003,102.980003,100.41999799999999,102.760002,1597200.0,97.376663,2016-09-12,PPG,0.0188378781707288,0.018838002985941002
553780,559734,101.709999,101.949997,100.58000200000001,101.160004,1425400.0,95.860497,2016-09-13,PPG,-0.0155701166305113,-0.0155702410360016
553781,559735,101.07,101.379997,99.959999,100.68,1098700.0,95.405647,2016-09-14,PPG,-0.00474491593758364,-0.0047449978353104605
553782,559736,100.690002,101.599998,100.379997,101.239998,1193000.0,95.936302,2016-09-15,PPG,0.00556209214743864,0.00556215733015497
553783,559737,100.629997,100.82,99.779999,100.209999,1986700.0,94.960266,2016-09-16,PPG,-0.0101737921897385,-0.01017383465377
553784,559738,100.93,101.550003,100.529999,101.08000200000001,1265600.0,95.78469100000001,2016-09-19,PPG,0.008681789075864591,0.0086817983103662
553785,559739,100.410004,101.949997,100.410004,101.260002,1317400.0,95.955261,2016-09-20,PPG,0.0017807647361936,0.0017807676735108698
553786,559740,101.800003,102.540001,101.260002,102.459999,1144000.0,97.092384,2016-09-21,PPG,0.0118505539784839,0.011850651553414
553787,559741,103.510002,104.220001,102.91999799999999,103.139999,1149800.0,97.736763,2016-09-22,PPG,0.00663676154043147,0.0066367363521056
553788,559742,103.110001,103.760002,102.779999,103.269997,1649000.0,97.859955,2016-09-23,PPG,0.0012604469006203302,0.00126040334749278
553789,559743,103.07,103.290001,102.010002,102.139999,928400.0,96.789146,2016-09-26,PPG,-0.010942259272446998,-0.0109421713259079
553790,559744,102.0,102.629997,101.550003,102.449997,1290400.0,97.082924,2016-09-27,PPG,0.00303523702957365,0.00303503038021358
553791,559745,102.91999799999999,103.949997,102.370003,103.57,1300300.0,98.144257,2016-09-28,PPG,0.0109322315013913,0.0109321916329583
553792,559746,103.650002,103.959999,101.980003,102.059998,1162400.0,96.713356,2016-09-29,PPG,-0.014579569337408999,-0.0145795307521484
553793,559747,102.650002,103.849998,102.650002,103.360001,1716500.0,97.945259,2016-09-30,PPG,0.0127376719302346,0.0127376349742825
553794,559748,103.269997,104.040001,103.269997,103.440002,1348300.0,98.021057,2016-10-03,PPG,0.0007738812554469731,0.0007740034754837309
553795,559749,103.800003,104.08000200000001,101.800003,102.050003,1560000.0,96.703873,2016-10-04,PPG,-0.0134377657241546,-0.0134377317587446
553796,559750,102.300003,102.730003,101.550003,101.58000200000001,912400.0,96.258492,2016-10-05,PPG,-0.00460561698495776,-0.0046055951610311
553797,559751,101.400002,102.360001,101.220001,102.190002,1078800.0,96.836533,2016-10-06,PPG,0.00600509095862423,0.00600511899970235
553798,559752,97.190002,97.5,92.510002,93.730003,7136800.0,88.819725,2016-10-07,PPG,-0.0827870200598776,-0.0827869540505539
553799,559753,94.309998,94.989998,93.220001,93.849998,3251600.0,88.933441,2016-10-10,PPG,0.0012803011943574,0.00128021973924408
553800,559754,93.25,93.25,91.510002,92.300003,4157700.0,87.46466099999999,2016-10-11,PPG,-0.0165154972469804,-0.0165156636444467
553801,559755,92.389999,92.559998,91.43,91.940002,2171200.0,87.12352,2016-10-12,PPG,-0.00390032952851671,-0.00390033573455029
553802,559756,91.010002,92.360001,90.309998,92.120003,2603400.0,87.294067,2016-10-13,PPG,0.00195753110067187,0.00195780939835077
553803,559757,92.75,93.110001,92.550003,92.599998,2453200.0,87.748924,2016-10-14,PPG,0.00521062903392977,0.00521054042953084
553804,559758,92.599998,92.879997,92.239998,92.660004,1918800.0,87.805779,2016-10-17,PPG,0.000647928172885726,0.000648012972959355
553805,559759,93.75,93.83000200000001,92.790001,92.809998,1317500.0,87.947914,2016-10-18,PPG,0.00161874311256893,0.00161875667521016
553806,559760,92.82,93.18,92.160004,92.559998,2165900.0,87.711014,2016-10-19,PPG,-0.0026936397832015803,-0.00269367530855891
553807,559761,92.690002,94.470001,92.510002,92.660004,2411400.0,87.805779,2016-10-20,PPG,0.00108042303558364,0.00108044514002703
553808,559762,91.41999799999999,92.589996,90.480003,92.379997,2366900.0,87.540451,2016-10-21,PPG,-0.00302176010533428,-0.0030218755440588603
553809,559763,92.75,93.510002,92.699997,93.239998,2011100.0,88.35539200000001,2016-10-24,PPG,0.00930930776219085,0.00930938545061877
553810,559764,90.550003,92.059998,89.639999,91.220001,4338500.0,86.441223,2016-10-25,PPG,-0.0216644276786186,-0.0216644899541933
553811,559765,91.010002,92.620003,91.010002,92.519997,2515800.0,87.673119,2016-10-26,PPG,0.0142512560239922,0.0142512166821835
553812,559766,93.029999,93.629997,92.739998,93.349998,2290700.0,88.459633,2016-10-27,PPG,0.00897098231443083,0.00897104438946306
553813,559767,93.440002,94.529999,92.269997,92.870003,2062000.0,88.004776,2016-10-28,PPG,-0.00514197249721793,-0.0051418854877747205
553814,559768,93.349998,93.440002,92.809998,93.129997,2173000.0,88.25116700000001,2016-10-31,PPG,0.00279974577743358,0.00279954766449197
553815,559769,93.25,93.589996,91.75,92.739998,2224200.0,87.881584,2016-11-01,PPG,-0.00418785396911514,-0.00418768401764258
553816,559770,92.849998,93.989998,92.370003,92.379997,2226700.0,87.540451,2016-11-02,PPG,-0.0038817347670929703,-0.0038818310088814
553817,559771,92.760002,93.139999,91.660004,91.75,1646900.0,86.943436,2016-11-03,PPG,-0.00681987576234899,-0.00681962568152072
553818,559772,92.019997,93.660004,91.540001,92.809998,1528600.0,87.947914,2016-11-04,PPG,0.0115532356002124,0.0115531117166212
553819,559773,94.160004,94.41999799999999,93.57,94.349998,2066800.0,89.407249,2016-11-07,PPG,0.0165931735458784,0.0165930399007228
553820,559774,93.83000200000001,95.190002,93.5,94.739998,1692100.0,90.159058,2016-11-08,PPG,0.00840881481545197,0.00413354539763744
553821,559775,92.360001,95.970001,90.879997,95.290001,3225500.0,90.68246500000001,2016-11-09,PPG,0.0058053734323619795,0.0058053938316529104
553822,559776,95.910004,98.209999,95.779999,96.870003,2826800.0,92.186073,2016-11-10,PPG,0.0165810225824805,0.0165809841895164
553823,559777,96.32,97.269997,95.489998,95.769997,2013800.0,91.139259,2016-11-11,PPG,-0.0113554462830844,-0.0113554863831272
553824,559778,96.400002,96.849998,95.129997,96.050003,2002300.0,91.405716,2016-11-14,PPG,0.00292362482341457,0.00292373403749813
553825,559779,96.099998,96.540001,95.510002,96.230003,1778800.0,91.57701899999999,2016-11-15,PPG,0.0018740950511235699,0.0018740238873287101
553826,559780,95.959999,96.57,95.860001,96.360001,1636400.0,91.70072900000001,2016-11-16,PPG,0.00135088476727985,0.00135090923773529
553827,559781,96.769997,96.83000200000001,96.099998,96.610001,1118700.0,91.938629,2016-11-17,PPG,0.0025943087104576303,0.00259443749901989
553828,559782,96.230003,96.230003,95.120003,95.190002,1276900.0,90.587303,2016-11-18,PPG,-0.0146981308585752,-0.0146982608974405
553829,559783,95.559998,96.33000200000001,95.309998,96.190002,1807100.0,91.538948,2016-11-21,PPG,0.0105052801936272,0.0105053049583925
553830,559784,96.449997,96.709999,96.029999,96.620003,1513600.0,91.948151,2016-11-22,PPG,0.00447026111770477,0.00447032946313897
553831,559785,96.589996,97.690002,96.360001,97.589996,1089300.0,92.871246,2016-11-23,PPG,0.0100392992133143,0.0100392565709193
553832,559786,97.629997,98.129997,97.349998,98.129997,482500.0,93.385147,2016-11-25,PPG,0.0055334780368943,0.0055333643009885
553833,559787,97.91999799999999,97.949997,96.769997,97.349998,1251200.0,92.642853,2016-11-28,PPG,-0.0079487372868835,-0.007948629612207209
553834,559788,97.349998,98.449997,96.91999799999999,98.0,1467900.0,93.261414,2016-11-29,PPG,0.00667683453142365,0.00667695956193026
553835,559789,98.459999,98.690002,95.83000200000001,95.93,2704300.0,91.291527,2016-11-30,PPG,-0.0211222081621023,-0.0211224489795918
553836,559790,96.41999799999999,96.800003,94.849998,95.239998,2444100.0,90.634872,2016-12-01,PPG,-0.00719294573745055,-0.007192765558219571
553837,559791,95.290001,95.5,94.150002,94.58000200000001,2084400.0,90.00679000000001,2016-12-02,PPG,-0.00692980511960128,-0.0069298195491353
553838,559792,95.360001,96.989998,95.230003,95.989998,1634600.0,91.34861,2016-12-05,PPG,0.0149079863863604,0.0149079717718763
553839,559793,95.980003,96.360001,95.519997,96.220001,1358000.0,91.56749,2016-12-06,PPG,0.00239609557277354,0.0023961142284845104
553840,559794,96.309998,98.209999,96.209999,98.18,1581700.0,93.432724,2016-12-07,PPG,0.0203700461812373,0.0203699748454587
553841,559795,98.18,99.66999799999999,97.879997,99.410004,1494200.0,94.60323299999999,2016-12-08,PPG,0.0125278269741982,0.012528050519454
553842,559796,99.480003,100.16999799999999,98.91999799999999,99.300003,1354900.0,94.498581,2016-12-09,PPG,-0.00110622012251949,-0.00110653853308362
553843,559797,99.07,99.849998,97.760002,98.650002,1528900.0,93.87999,2016-12-12,PPG,-0.00654603480236382,-0.00654583061795078
553844,559798,98.129997,98.389999,96.650002,97.050003,2145200.0,92.357361,2016-12-13,PPG,-0.0162188875392936,-0.0162189454390482
553845,559799,97.07,97.879997,95.910004,96.16999799999999,1576800.0,91.51992,2016-12-14,PPG,-0.00906739853686378,-0.009067542223568979
553846,559800,96.199997,97.120003,95.629997,96.099998,1684600.0,91.453285,2016-12-15,PPG,-0.000728092856724594,-0.000727877731681037
553847,559801,96.07,96.699997,95.779999,95.91999799999999,2050100.0,91.281998,2016-12-16,PPG,-0.0018729452966068602,-0.0018730489463693
553848,559802,96.059998,96.870003,95.970001,96.220001,1473400.0,91.56749,2016-12-19,PPG,0.0031275827244709995,0.00312763767989233
553849,559803,96.260002,96.400002,95.559998,95.639999,1418600.0,91.015518,2016-12-20,PPG,-0.00602803462233159,-0.00602787356030055
553850,559804,95.389999,96.199997,95.050003,95.870003,1189500.0,91.23442800000001,2016-12-21,PPG,0.00240519424390895,0.00240489337520788
553851,559805,95.940002,95.989998,94.93,95.0,1177500.0,90.406479,2016-12-22,PPG,-0.00907496235960392,-0.009074819784870571
553852,559806,95.040001,95.040001,93.800003,94.690002,1816200.0,90.111465,2016-12-23,PPG,-0.0032631953291755197,-0.00326313684210522
553853,559807,95.050003,95.93,94.879997,95.849998,1200000.0,91.215378,2016-12-27,PPG,0.0122505277214171,0.0122504591350625
553854,559808,96.339996,96.470001,94.589996,94.66999799999999,1155100.0,90.092445,2016-12-28,PPG,-0.0123107860168052,-0.012310902708626
553855,559809,94.699997,95.32,94.66999799999999,95.309998,1150100.0,90.701492,2016-12-29,PPG,0.00676024499057615,0.0067603254834756
553856,559810,95.43,95.5,94.459999,94.760002,1248700.0,90.178078,2016-12-30,PPG,-0.0057707319742876795,-0.0057706013171881
553857,559811,95.43,95.970001,94.57,95.25,1358100.0,90.644386,2017-01-03,PPG,0.005170968491920999,0.00517093699512583
553858,559812,95.709999,97.519997,95.629997,97.269997,1334500.0,92.566742,2017-01-04,PPG,0.0212076675107051,0.0212073175853018
553859,559813,96.459999,96.620003,95.400002,95.620003,1661900.0,90.996498,2017-01-05,PPG,-0.0169633711425212,-0.0169630312623532
553860,559814,95.769997,96.139999,95.290001,95.589996,1379800.0,90.967957,2017-01-06,PPG,-0.00031364943297052,-0.000313815091597447
553861,559815,95.050003,96.459999,94.769997,96.349998,1454000.0,91.69120799999999,2017-01-09,PPG,0.00795061276356912,0.007950643705435521
553862,559816,96.07,96.650002,95.66999799999999,96.389999,1418100.0,91.729263,2017-01-10,PPG,0.000415034340042642,0.00041516347514614104
553863,559817,96.25,96.66999799999999,95.58000200000001,96.629997,1169900.0,91.957672,2017-01-11,PPG,0.00249003417807891,0.0024898641196167103
553864,559818,96.449997,96.980003,95.800003,96.870003,1027100.0,92.186073,2017-01-12,PPG,0.00248376231186009,0.00248376288369334
553865,559819,96.83000200000001,97.099998,96.16999799999999,96.32,1237900.0,91.662666,2017-01-13,PPG,-0.0056777231415421296,-0.00567774319156367
553866,559820,95.790001,96.08000200000001,94.620003,95.970001,2251600.0,91.32958199999999,2017-01-17,PPG,-0.0036338022287066797,-0.00363371054817274
553867,559821,95.970001,96.849998,95.660004,96.690002,2144200.0,92.014771,2017-01-18,PPG,0.00750237748816152,0.00750235482439998
553868,559822,97.839996,98.980003,96.0,97.5,3378000.0,92.785591,2017-01-19,PPG,0.00837713327569989,0.00837726738282618
553869,559823,98.029999,99.82,97.870003,99.0,2805500.0,94.213074,2017-01-20,PPG,0.0153847486944392,0.0153846153846153
553870,559824,98.739998,100.309998,98.699997,100.239998,2340700.0,95.393105,2017-01-23,PPG,0.0125251300047804,0.0125252323232323
553871,559825,100.739998,102.550003,100.440002,101.800003,2264400.0,96.877686,2017-01-24,PPG,0.0155627704958339,0.015562699831658
553872,559826,102.199997,102.279999,100.879997,101.08000200000001,2107500.0,96.19250500000001,2017-01-25,PPG,-0.00707264002982066,-0.00707270116681635
553873,559827,101.639999,102.0,100.760002,101.849998,1591700.0,96.925262,2017-01-26,PPG,0.00761761012461415,0.00761768880851443
553874,559828,101.690002,102.120003,101.220001,102.019997,1333600.0,97.08704399999999,2017-01-27,PPG,0.00166914173520616,0.0016691114711657698
553875,559829,102.150002,102.150002,100.440002,102.029999,1996100.0,97.096565,2017-01-30,PPG,9.806663801592559e-05,9.803960296128621e-05
553876,559830,101.720001,101.860001,99.290001,100.010002,2571500.0,95.17423199999999,2017-01-31,PPG,-0.0197981566083207,-0.0197980693893763
553877,559831,99.650002,100.760002,99.0,100.559998,1643600.0,95.697647,2017-02-01,PPG,0.00549954529709251,0.00549940994901688
553878,559832,100.510002,101.08000200000001,100.040001,100.58000200000001,1971400.0,95.716675,2017-02-02,PPG,0.000198834564866468,0.000198926018276202
553879,559833,101.110001,101.150002,100.41999799999999,100.940002,921600.0,96.059273,2017-02-03,PPG,0.00357929274078961,0.0035792403344754296
553880,559834,100.32,100.989998,99.550003,99.91999799999999,1606000.0,95.088585,2017-02-06,PPG,-0.0101050941745104,-0.0101050523062205
553881,559835,100.040001,100.82,99.769997,100.010002,1084100.0,95.17423199999999,2017-02-07,PPG,0.0009007074823965679,0.000900760626516339
553882,559836,100.08000200000001,100.269997,99.57,100.099998,1029100.0,95.259888,2017-02-08,PPG,0.0008999915019014539,0.000899869995003133
553883,559837,100.190002,100.480003,99.790001,100.129997,726400.0,95.288437,2017-02-09,PPG,0.00029969592238021604,0.000299690315678225
553884,559838,100.199997,100.949997,100.019997,100.540001,1304200.0,95.678604,2017-02-10,PPG,0.00409458914726457,0.00409471699075348
553885,559839,100.940002,101.25,100.639999,100.809998,980900.0,95.93555500000001,2017-02-13,PPG,0.0026855638487366397,0.00268546844355
553886,559840,100.910004,101.75,100.470001,101.57,1531000.0,96.658798,2017-02-14,PPG,0.0075388420904012295,0.0075389546183704
553887,559841,101.0,101.66999799999999,100.910004,101.5,877500.0,96.974091,2017-02-15,PPG,0.0032619172442016602,-0.000689179875947521
553888,559842,101.800003,101.989998,100.989998,101.769997,878500.0,97.232056,2017-02-16,PPG,0.00266014352225286,0.00266006896551718
553889,559843,101.709999,102.370003,100.739998,102.370003,1306000.0,97.805298,2017-02-17,PPG,0.00589560710307291,0.005895706177528879
553890,559844,102.5,103.129997,102.349998,103.0,2263300.0,98.407211,2017-02-21,PPG,0.00615419626859071,0.00615411723686288
553891,559845,102.400002,103.339996,102.32,102.809998,1950600.0,98.225685,2017-02-22,PPG,-0.00184464124280492,-0.0018446796116505801
553892,559846,103.230003,103.230003,102.190002,102.599998,1521200.0,98.02504,2017-02-23,PPG,-0.00204269382290378,-0.00204260289937941
553893,559847,102.129997,103.370003,101.93,103.309998,1348600.0,98.70339200000001,2017-02-24,PPG,0.0069201910042575605,0.00692007810760376
553894,559848,103.08000200000001,103.400002,102.260002,102.449997,1149000.0,97.881744,2017-02-27,PPG,-0.00832441503124837,-0.008324470202777491
553895,559849,102.32,102.760002,101.959999,102.43,1277500.0,97.86261,2017-02-28,PPG,-0.00019548078342368502,-0.000195187902250371
553896,559850,103.449997,103.82,103.050003,103.290001,1680000.0,98.684288,2017-03-01,PPG,0.00839624040274423,0.008395987503660999
553897,559851,103.300003,103.300003,102.300003,102.379997,1398800.0,97.81485699999999,2017-03-02,PPG,-0.00881022721671754,-0.00881018483095963
553898,559852,102.43,103.16999799999999,101.68,102.059998,1077300.0,97.509132,2017-03-03,PPG,-0.00312554768648299,-0.0031256007948506897
553899,559853,101.949997,101.959999,100.959999,101.199997,928000.0,96.687454,2017-03-06,PPG,-0.00842667741109615,-0.00842642579710806
553900,559854,101.139999,101.25,100.66999799999999,100.779999,1211900.0,96.286201,2017-03-07,PPG,-0.00415000068157756,-0.00415017798864159
553901,559855,100.639999,113.489998,100.339996,106.83000200000001,12605300.0,102.066429,2017-03-08,PPG,0.0600317380888253,0.0600317826952945
553902,559856,106.0,106.0,101.41999799999999,102.93,5750000.0,98.340324,2017-03-09,PPG,-0.036506665673588,-0.0365066173077483
553903,559857,103.940002,104.519997,101.940002,102.089996,3039000.0,97.537766,2017-03-10,PPG,-0.00816102659983087,-0.00816092490041787
553904,559858,102.260002,102.730003,101.589996,102.68,1442700.0,98.101486,2017-03-13,PPG,0.0057795049355549,0.0057792538262027
553905,559859,102.470001,102.470001,101.449997,101.730003,1208600.0,97.19384000000001,2017-03-14,PPG,-0.00925211265403258,-0.0092520159719518
553906,559860,102.889999,104.410004,102.190002,104.040001,1789400.0,99.40083299999999,2017-03-15,PPG,0.0227071283529905,0.0227071456982066
553907,559861,104.650002,104.650002,103.019997,103.620003,1194400.0,98.999557,2017-03-16,PPG,-0.0040369480605863,-0.00403688961902271
553908,559862,104.389999,105.0,103.379997,104.489998,2972900.0,99.830772,2017-03-17,PPG,0.00839614868175631,0.008396014039876
553909,559863,104.230003,105.720001,102.360001,105.57,2573600.0,100.86261,2017-03-20,PPG,0.0103358711880943,0.0103359366510849
553910,559864,105.389999,106.239998,104.43,104.480003,2055700.0,99.821213,2017-03-21,PPG,-0.0103249063255453,-0.0103248744908592
553911,559865,104.400002,104.400002,102.639999,104.25,2044200.0,99.60147099999999,2017-03-22,PPG,-0.00220135573788305,-0.00220140690463033
553912,559866,103.93,105.459999,103.5,104.620003,1838800.0,99.954964,2017-03-23,PPG,0.0035490740894781295,0.0035491894484411795
553913,559867,104.5,104.870003,103.559998,103.790001,1284300.0,99.16198,2017-03-24,PPG,-0.007933412891830029,-0.00793349241253605
553914,559868,102.760002,104.010002,102.199997,103.82,1588200.0,99.19064300000001,2017-03-27,PPG,0.000289052316220229,0.00028903554977310897
553915,559869,103.849998,105.300003,103.57,104.970001,1084900.0,100.28936,2017-03-28,PPG,0.0110768210263543,0.011076873434791001
553916,559870,104.889999,105.949997,104.550003,105.769997,1144100.0,101.053688,2017-03-29,PPG,0.00762122721692493,0.00762118693320768
553917,559871,105.449997,105.959999,105.160004,105.230003,1413300.0,100.53778100000001,2017-03-30,PPG,-0.00510527631609048,-0.00510536083309154
553918,559872,104.940002,105.519997,103.940002,105.08000200000001,1235900.0,100.394463,2017-03-31,PPG,-0.00142551385732292,-0.0014254584787952698
553919,559873,105.5,105.620003,104.18,105.08000200000001,1317300.0,100.394463,2017-04-03,PPG,0.0,0.0
553920,559874,105.08000200000001,105.290001,104.529999,104.769997,1214200.0,100.098267,2017-04-04,PPG,-0.00295032207104884,-0.0029501807584662
553921,559875,105.0,106.66999799999999,104.550003,105.0,1664000.0,100.318031,2017-04-05,PPG,0.00219548256514779,0.00219531360681424
553922,559876,105.18,105.860001,104.989998,105.269997,1247100.0,100.575981,2017-04-06,PPG,0.00257132239766533,0.0025714000000001103
553923,559877,105.150002,106.199997,105.150002,106.050003,1116700.0,101.321198,2017-04-07,PPG,0.0074094927296806095,0.007409575588759541
553924,559878,105.889999,106.410004,105.260002,105.790001,1029700.0,101.0728,2017-04-10,PPG,-0.00245158964662062,-0.0024516925284764303
553925,559879,105.489998,106.110001,104.870003,106.059998,1154400.0,101.33075699999999,2017-04-11,PPG,0.0025521901045584302,0.0025521977261346897
553926,559880,105.5,105.5,104.519997,105.059998,1174500.0,100.375351,2017-04-12,PPG,-0.00942858839986771,-0.00942862548422829
553927,559881,105.0,105.309998,104.269997,104.41999799999999,857500.0,99.76389300000001,2017-04-13,PPG,-0.0060917146880014,-0.00609175720715305
553928,559882,104.82,105.459999,104.32,105.389999,859800.0,100.690636,2017-04-17,PPG,0.00928936283591097,0.00928941791398996
553929,559883,104.870003,105.379997,104.32,104.739998,1148600.0,100.069626,2017-04-18,PPG,-0.00616750499023566,-0.00616757762755082
553930,559884,104.970001,105.800003,104.66999799999999,105.0,1176000.0,100.318031,2017-04-19,PPG,0.00248232165872198,0.0024823563582654397
553931,559885,105.629997,106.610001,104.360001,106.370003,2230500.0,101.626953,2017-04-20,PPG,0.013047724192273999,0.0130476476190475
553932,559886,106.660004,107.160004,105.940002,105.940002,2044900.0,101.21611800000001,2017-04-21,PPG,-0.00404257913744599,-0.00404250247130289
553933,559887,108.029999,108.220001,106.900002,108.010002,2096800.0,103.19381700000001,2017-04-24,PPG,0.0195393682259184,0.019539361534088
553934,559888,108.18,111.059998,108.18,110.82,2342600.0,105.878525,2017-04-25,PPG,0.0260161711045148,0.0260160906209408
553935,559889,110.889999,110.889999,109.610001,110.480003,1332600.0,105.553665,2017-04-26,PPG,-0.00306823314737337,-0.00306801118931599
553936,559890,110.58000200000001,111.989998,110.300003,111.290001,1715900.0,106.327545,2017-04-27,PPG,0.0073316260501235,0.0073316254345141595
553937,559891,111.050003,111.050003,109.809998,109.839996,1046800.0,104.94220700000001,2017-04-28,PPG,-0.01302896629467,-0.0130290680831247
553938,559892,109.66999799999999,109.949997,109.110001,109.459999,706500.0,104.579155,2017-05-01,PPG,-0.0034595422602461397,-0.0034595503809014
553939,559893,109.690002,113.0,109.089996,109.470001,1109200.0,104.58871500000001,2017-05-02,PPG,9.14140107557415e-05,9.13758458922498e-05
553940,559894,109.32,109.66999799999999,109.040001,109.199997,927300.0,104.33075,2017-05-03,PPG,-0.00246647068950023,-0.00246646567583386
553941,559895,109.33000200000001,110.290001,109.220001,109.889999,1102100.0,104.989975,2017-05-04,PPG,0.00631860693036335,0.00631869980729038
553942,559896,110.0,111.339996,109.83000200000001,110.559998,1214000.0,105.63011200000001,2017-05-05,PPG,0.00609712498740955,0.00609699705247957
553943,559897,109.75,109.949997,108.160004,108.43,1310000.0,103.97126,2017-05-08,PPG,-0.0157043476390519,-0.0192655394223142
553944,559898,108.470001,108.720001,107.529999,107.849998,1257900.0,103.4151,2017-05-09,PPG,-0.00534917053039474,-0.00534909157982111
553945,559899,107.940002,108.540001,107.599998,107.849998,1044000.0,103.4151,2017-05-10,PPG,0.0,0.0
553946,559900,107.309998,107.760002,106.269997,107.459999,1128600.0,103.041122,2017-05-11,PPG,-0.0036162804077933797,-0.00361612431369729
553947,559901,107.290001,107.470001,106.82,107.120003,500500.0,102.715111,2017-05-12,PPG,-0.0031638921788915697,-0.0031639307943786
553948,559902,107.160004,108.41999799999999,107.160004,107.980003,730300.0,103.539749,2017-05-15,PPG,0.00802840002772331,0.00802837916276
553949,559903,107.91999799999999,108.07,107.25,107.410004,599800.0,102.993187,2017-05-16,PPG,-0.0052787649697702,-0.00527874591742694
553950,559904,107.410004,107.410004,105.400002,105.480003,1294000.0,101.142563,2017-05-17,PPG,-0.017968411832911,-0.0179685404350232
553951,559905,105.620003,106.110001,104.900002,105.389999,1326900.0,101.056259,2017-05-18,PPG,-0.000853290617126246,-0.000853280218431451
553952,559906,105.110001,107.129997,105.110001,106.730003,1080600.0,102.34115600000001,2017-05-19,PPG,0.0127146701521972,0.012714716886941
553953,559907,106.949997,107.18,106.150002,106.41999799999999,959400.0,102.0439,2017-05-22,PPG,-0.00290455972570802,-0.00290457220356299
553954,559908,106.480003,107.07,106.089996,106.699997,794300.0,102.31237800000001,2017-05-23,PPG,0.0026310048910323,0.0026310750353517602
553955,559909,106.800003,107.440002,106.18,106.940002,510900.0,102.542511,2017-05-24,PPG,0.00224931728202038,0.00224934401825716
553956,559910,107.16999799999999,107.510002,106.57,106.910004,1340300.0,102.51374799999999,2017-05-25,PPG,-0.000280498299870979,-0.000280512431634405
553957,559911,106.720001,107.66999799999999,106.480003,107.239998,664300.0,102.83017,2017-05-26,PPG,0.0030866299025569303,0.00308665220889903
553958,559912,107.0,107.0,105.879997,106.480003,975100.0,102.101433,2017-05-30,PPG,-0.007086801470813421,-0.0070868613779721
553959,559913,106.66999799999999,106.66999799999999,105.690002,106.360001,1696100.0,101.986374,2017-05-31,PPG,-0.0011269087672843802,-0.00112699095247015
553960,559914,106.489998,110.470001,106.389999,109.160004,2198900.0,104.671234,2017-06-01,PPG,0.0263256736630326,0.0263257143068285
553961,559915,109.139999,110.650002,108.690002,110.41999799999999,1314500.0,105.87941000000001,2017-06-02,PPG,0.0115425791196844,0.0115426342417504
553962,559916,110.0,110.379997,108.309998,108.360001,1066200.0,103.90412099999999,2017-06-05,PPG,-0.0186560257560936,-0.0186560137412791
553963,559917,107.860001,108.559998,107.650002,108.379997,1258100.0,103.923302,2017-06-06,PPG,0.00018460288018795601,0.000184533036318602
553964,559918,108.57,108.75,107.529999,107.849998,1915100.0,103.4151,2017-06-07,PPG,-0.00489016409428567,-0.00489019205269037
553965,559919,107.849998,108.0,106.639999,107.91999799999999,1293600.0,103.48221600000001,2017-06-08,PPG,0.0006489961330597981,0.000649049617970299
